+1 1:131 2:-91 3:2018 4:-75 5:4000 6:-4000 7:-1999 8:267
+1 1:93 2:-233 3:2917 4:-78 5:4000 6:-4000 7:-2549 8:251
+1 1:100 2:-369 3:3007 4:-84 5:4000 6:-4000 7:-4000 8:195
+1 1:-108 2:-399 3:1770 4:-86 5:3232 6:-4000 7:-4000 8:186
+1 1:-342 2:-192 3:815 4:-63 5:2759 6:-4000 7:-4000 8:140
+1 1:-420 2:-4 3:-17 4:-22 5:2581 6:-4000 7:-4000 8:76
+1 1:-473 2:40 3:-523 4:63 5:2386 6:-4000 7:-4000 8:154
+1 1:-323 2:78 3:-317 4:124 5:1994 6:-4000 7:-4000 8:239
+1 1:-91 2:139 3:-761 4:105 5:1669 6:-4000 7:-3637 8:241
+1 1:107 2:56 3:-107 4:79 5:1971 6:-3848 7:-1684 8:296
+1 1:334 2:0 3:2093 4:-105 5:2101 6:-3643 7:238 8:131
+1 1:487 2:21 3:2095 4:-216 5:2101 6:-3405 7:1353 8:-450
+1 1:537 2:-37 3:-146 4:-251 5:1850 6:-3144 7:2036 8:-909
+1 1:281 2:-47 3:-1554 4:-359 5:420 6:-2895 7:2760 8:-1296
+1 1:245 2:-55 3:-2241 4:-279 5:-1121 6:-2612 7:3754 8:-1709
+1 1:277 2:8 3:-2318 4:-133 5:-2436 6:-2382 7:4000 8:-1831
+1 1:102 2:98 3:-2497 4:-40 5:-4000 6:-2095 7:4000 8:-1911
+1 1:-84 2:180 3:-2342 4:94 5:-4000 6:-1755 7:4000 8:-1820
+1 1:-255 2:225 3:-1274 4:154 5:-3387 6:-1375 7:4000 8:-1204
+1 1:-286 2:172 3:457 4:121 5:-1703 6:-875 7:4000 8:-419
+1 1:-453 2:247 3:1900 4:142 5:-268 6:-466 7:4000 8:318
+1 1:-700 2:162 3:2095 4:189 5:692 6:-200 7:4000 8:475
+1 1:-875 2:10 3:2875 4:251 5:1328 6:-33 7:4000 8:486
+1 1:-936 2:-50 3:2412 4:292 5:1319 6:107 7:4000 8:392
+1 1:-814 2:-131 3:445 4:260 5:739 6:260 7:4000 8:-166
+1 1:-618 2:-94 3:-1552 4:229 5:-82 6:267 7:4000 8:-740
+1 1:-413 2:-101 3:-2566 4:203 5:-1422 6:136 7:4000 8:-1034
+1 1:-210 2:-111 3:-2538 4:85 5:-2704 6:-30 7:4000 8:-858
+1 1:105 2:-57 3:-1348 4:-42 5:-3593 6:48 7:4000 8:-622
+1 1:436 2:-118 3:858 4:-72 5:-4000 6:276 7:4000 8:-319
+1 1:452 2:-224 3:608 4:-71 5:-4000 6:495 7:4000 8:-248
+1 1:245 2:-130 3:408 4:-150 5:-3990 6:818 7:4000 8:-352
+1 1:32 2:-96 3:1283 4:-233 5:-3131 6:1051 7:4000 8:-454
+1 1:39 2:-118 3:2054 4:-214 5:-1593 6:1519 7:4000 8:-506
+1 1:47 2:-118 3:3369 4:-157 5:-311 6:1840 7:4000 8:-419
+1 1:211 2:-215 3:2917 4:4 5:487 6:1929 7:4000 8:-254
+1 1:526 2:-206 3:2194 4:134 5:1026 6:2116 7:4000 8:198
+1 1:827 2:-104 3:1729 4:129 5:1205 6:2123 7:4000 8:652
+1 1:896 2:0 3:2326 4:77 5:1077 6:2084 7:4000 8:1047
+1 1:920 2:21 3:2602 4:129 5:707 6:2084 7:4000 8:1150
+1 1:994 2:136 3:-645 4:236 5:235 6:2169 7:4000 8:1313
+1 1:384 2:282 3:-3718 4:219 5:-189 6:2188 7:4000 8:1771
+1 1:-242 2:347 3:-4000 4:142 5:-472 6:2125 7:4000 8:2054
+1 1:-771 2:387 3:-4000 4:-141 5:-746 6:2060 7:4000 8:2042
+1 1:-1039 2:328 3:-4000 4:-391 5:-1375 6:1993 7:4000 8:1635
+1 1:-999 2:276 3:-4000 4:-470 5:-2248 6:1864 7:4000 8:1207
+1 1:-858 2:227 3:-4000 4:-379 5:-2730 6:1787 7:4000 8:999
+1 1:-74 2:233 3:-3693 4:-141 5:-2967 6:1704 7:4000 8:740
+1 1:296 2:304 3:-3094 4:101 5:-2805 6:1604 7:4000 8:695
+1 1:-20 2:309 3:-2370 4:381 5:-2147 6:1539 7:4000 8:1142
+1 1:-9 2:217 3:-356 4:434 5:-1261 6:1449 7:4000 8:1468
+1 1:334 2:122 3:3250 4:366 5:-580 6:1331 7:4000 8:1403
+1 1:834 2:-51 3:4000 4:209 5:-149 6:1157 7:4000 8:1064
+1 1:647 2:-167 3:4000 4:89 5:90 6:1053 7:4000 8:238
+1 1:220 2:-163 3:4000 4:141 5:-256 6:953 7:4000 8:-586
+1 1:176 2:-129 3:3202 4:132 5:-793 6:929 7:4000 8:-1468
+1 1:-59 2:-131 3:2680 4:199 5:-1096 6:880 7:3983 8:-1908
+1 1:-80 2:-152 3:1810 4:252 5:-942 6:867 7:3689 8:-1884
+1 1:-144 2:-78 3:394 4:167 5:-227 6:888 7:2969 8:-1469
+1 1:-598 2:-22 3:-1321 4:69 5:1213 6:871 7:1280 8:-753
+1 1:-1260 2:-5 3:-2431 4:2 5:3623 6:941 7:-939 8:-385
+1 1:-1494 2:4 3:-2438 4:20 5:4000 6:980 7:-3603 8:-219
+1 1:-1370 2:33 3:-1297 4:-43 5:4000 6:966 7:-4000 8:-500
+1 1:-1264 2:-42 3:207 4:-210 5:4000 6:919 7:-4000 8:-753
+1 1:-925 2:-264 3:1633 4:-291 5:4000 6:798 7:-4000 8:-1013
+1 1:-649 2:-295 3:2669 4:-319 5:4000 6:561 7:-4000 8:-1330
+1 1:-445 2:-202 3:2225 4:-214 5:4000 6:195 7:-4000 8:-1120
+1 1:6 2:-64 3:784 4:-137 5:1669 6:-173 7:-4000 8:-716
+1 1:595 2:111 3:-1348 4:-179 5:3150 6:-443 7:-4000 8:-447
+1 1:838 2:119 3:-3030 4:-332 5:4000 6:-680 7:-4000 8:-59
+1 1:986 2:74 3:-3934 4:-385 5:4000 6:-867 7:-4000 8:-219
+1 1:1299 2:74 3:-3559 4:-167 5:4000 6:-945 7:-4000 8:-78
+1 1:1112 2:-23 3:-2538 4:-2 5:4000 6:-979 7:-4000 8:695
+1 1:695 2:-128 3:-1240 4:153 5:4000 6:-905 7:-4000 8:1138
+1 1:436 2:-266 3:-737 4:111 5:2872 6:-826 7:-4000 8:1578
+1 1:577 2:-375 3:-737 4:104 5:-4000 6:-770 7:-4000 8:1388
+1 1:1112 2:-352 3:18 4:88 5:-4000 6:-679 7:-4000 8:1091
+1 1:1220 2:-383 3:-178 4:-141 5:-4000 6:-549 7:-4000 8:1205
+1 1:1086 2:-220 3:237 4:-239 5:-4000 6:-351 7:-4000 8:1352
+1 1:920 2:-48 3:2278 4:-234 5:-4000 6:-159 7:-4000 8:1452
+1 1:113 2:110 3:2875 4:-206 5:-4000 6:-17 7:-4000 8:1270
+1 1:-523 2:395 3:2356 4:-212 5:-4000 6:7 7:-4000 8:1216
+1 1:-409 2:521 3:2398 4:-198 5:4000 6:-15 7:-4000 8:1236
+1 1:-457 2:553 3:2087 4:-246 5:4000 6:-22 7:-1962 8:1258
+1 1:-554 2:441 3:1509 4:-342 5:3851 6:-85 7:728 8:1372
+1 1:-575 2:199 3:1582 4:-336 5:4000 6:-132 7:1864 8:1513
+1 1:-523 2:-104 3:2343 4:-320 5:4000 6:-212 7:3038 8:1663
+1 1:-497 2:-166 3:1574 4:-182 5:4000 6:-354 7:3475 8:1793
+1 1:-531 2:93 3:-568 4:69 5:4000 6:-537 7:3286 8:2054
+1 1:-232 2:335 3:-1036 4:154 5:4000 6:-773 7:1864 8:2249
+1 1:202 2:420 3:-746 4:85 5:4000 6:-979 7:-101 8:2437
+1 1:226 2:428 3:-22 4:-19 5:-4000 6:-1044 7:-2312 8:2753
+1 1:0 2:344 3:-368 4:-104 5:-4000 6:-917 7:-4000 8:3226
+1 1:-193 2:75 3:-711 4:-198 5:-4000 6:-732 7:-4000 8:3845
+1 1:-303 2:-173 3:-373 4:-261 5:-4000 6:-516 7:-4000 8:4000
+1 1:-95 2:-236 3:-1227 4:-210 5:-3172 6:-240 7:-4000 8:4000
+1 1:183 2:-160 3:-776 4:-32 5:4000 6:-51 7:-4000 8:4000
+1 1:341 2:-213 3:419 4:118 5:4000 6:56 7:-4000 8:3161
+1 1:72 2:-264 3:310 4:193 5:4000 6:105 7:-4000 8:2563
+1 1:-29 2:-161 3:-776 4:292 5:4000 6:-6 7:-4000 8:2422
+1 1:106 2:-65 3:-2039 4:264 5:3623 6:-260 7:-4000 8:2966
+1 1:281 2:-63 3:-3111 4:270 5:-4000 6:-685 7:-4000 8:3617
+1 1:554 2:-106 3:-2346 4:169 5:-4000 6:-1230 7:-4000 8:3666
+1 1:329 2:53 3:-1811 4:-37 5:-4000 6:-1682 7:-4000 8:2954
+1 1:145 2:27 3:-697 4:-148 5:-4000 6:-2107 7:-4000 8:1496
+1 1:69 2:27 3:694 4:-314 5:-4000 6:-2382 7:-4000 8:-164
+1 1:-155 2:17 3:1674 4:-344 5:-4000 6:-2351 7:-4000 8:-1986
+1 1:-360 2:5 3:3045 4:-159 5:-4000 6:-2008 7:-4000 8:-3439
+1 1:-518 2:110 3:3438 4:38 5:-4000 6:-1330 7:-4000 8:-3931
+1 1:-618 2:52 3:4000 4:161 5:-4000 6:-516 7:-4000 8:-3333
+1 1:-553 2:103 3:2526 4:272 5:-4000 6:183 7:-4000 8:-2811
+1 1:-527 2:103 3:-348 4:378 5:-4000 6:620 7:-4000 8:-2223
+1 1:-518 2:59 3:-1202 4:402 5:-4000 6:896 7:-4000 8:-1849
+1 1:-321 2:-7 3:-1106 4:248 5:-4000 6:817 7:-4000 8:-2576
+1 1:-250 2:-142 3:-1101 4:252 5:-4000 6:599 7:-4000 8:-2556
+1 1:-71 2:-237 3:-753 4:172 5:-4000 6:422 7:-4000 8:-2975
+1 1:95 2:-173 3:541 4:-31 5:-4000 6:283 7:-4000 8:-3089
+1 1:-8 2:-4 3:306 4:-46 5:-4000 6:209 7:-4000 8:-3178
+1 1:5 2:46 3:-776 4:-81 5:-4000 6:115 7:-3532 8:-3319
+1 1:-27 2:20 3:-1341 4:9 5:-2904 6:114 7:-2247 8:-2324
+1 1:-60 2:1 3:-234 4:43 5:-1691 6:58 7:-1095 8:-2395
+1 1:18 2:24 3:345 4:-11 5:-2484 6:-98 7:134 8:-2217
+1 1:41 2:158 3:-935 4:-88 5:-4000 6:-287 7:1320 8:-2103
+1 1:66 2:189 3:-1215 4:-108 5:-4000 6:-454 7:2321 8:-2295
+1 1:93 2:57 3:-2163 4:-57 5:-4000 6:-535 7:3294 8:-2181
+1 1:132 2:59 3:-2373 4:-64 5:-4000 6:-510 7:4000 8:-2218
+1 1:90 2:58 3:-2086 4:-26 5:-4000 6:-394 7:4000 8:-2116
+1 1:52 2:108 3:-1974 4:32 5:-4000 6:-407 7:4000 8:-2103
+1 1:23 2:87 3:-499 4:113 5:-4000 6:-533 7:4000 8:-1925
+1 1:-13 2:-14 3:-152 4:163 5:-4000 6:-718 7:4000 8:-1802
+1 1:-7 2:-118 3:392 4:132 5:-4000 6:-901 7:4000 8:-1577
+1 1:26 2:-162 3:1114 4:66 5:-4000 6:-891 7:4000 8:-1315
+1 1:110 2:44 3:1114 4:-5 5:-4000 6:-615 7:4000 8:-1013
+1 1:110 2:32 3:671 4:-97 5:-4000 6:-57 7:4000 8:-659
+1 1:86 2:-56 3:445 4:-141 5:-3706 6:611 7:4000 8:-312
+1 1:50 2:-32 3:638 4:-183 5:-3408 6:1279 7:4000 8:120
+1 1:20 2:-58 3:248 4:-175 5:-3148 6:1734 7:4000 8:535
+1 1:21 2:-36 3:157 4:-78 5:-1919 6:1864 7:4000 8:922
+1 1:72 2:-29 3:183 4:-36 5:3167 6:1734 7:4000 8:1236
+1 1:49 2:-25 3:980 4:32 5:4000 6:1449 7:4000 8:1468
+1 1:34 2:11 3:1444 4:44 5:4000 6:1148 7:4000 8:1606
+1 1:55 2:41 3:580 4:66 5:4000 6:871 7:4000 8:1663
+1 1:74 2:40 3:-479 4:122 5:4000 6:464 7:3038 8:1654
+1 1:129 2:40 3:-1344 4:166 5:4000 6:-32 7:1027 8:1698
+1 1:117 2:21 3:-1557 4:144 5:4000 6:-396 7:-1356 8:1704
+1 1:62 2:0 3:-1414 4:81 5:4000 6:-454 7:-4000 8:1592
+1 1:37 2:-7 3:-1015 4:116 5:4000 6:-147 7:-4000 8:1468
+1 1:32 2:12 3:-544 4:101 5:4000 6:220 7:-4000 8:1531
+1 1:9 2:34 3:89 4:75 5:4000 6:85 7:-1690 8:1584
+1 1:39 2:-1 3:622 4:17 5:4000 6:-428 7:2452 8:1476
+1 1:32 2:-35 3:892 4:-75 5:4000 6:-1041 7:4000 8:1150
+1 1:-9 2:-43 3:1114 4:-136 5:4000 6:-1717 7:4000 8:695
+1 1:-19 2:-16 3:1114 4:-232 5:4000 6:-2367 7:4000 8:182
+1 1:-40 2:4 3:1119 4:-246 5:4000 6:-2951 7:4000 8:-390
+1 1:-8 2:18 3:1257 4:-145 5:4000 6:-3127 7:4000 8:-999
+1 1:-25 2:38 3:1062 4:26 5:4000 6:-2819 7:4000 8:-1642
+1 1:-79 2:-30 3:686 4:118 5:4000 6:-2060 7:4000 8:-2134
+1 1:-177 2:-30 3:516 4:136 5:4000 6:-812 7:4000 8:-2375
+1 1:-178 2:-15 3:30 4:134 5:4000 6:722 7:4000 8:-2375
+1 1:-88 2:-23 3:-104 4:55 5:4000 6:2363 7:4000 8:-2324
+1 1:-118 2:-37 3:63 4:20 5:4000 6:4000 7:4000 8:-2103
+1 1:-121 2:-57 3:34 4:-18 5:4000 6:4000 7:4000 8:-1599
+1 1:-126 2:-60 3:219 4:-171 5:4000 6:4000 7:4000 8:-1296
+1 1:-162 2:-81 3:132 4:-255 5:4000 6:4000 7:4000 8:-946
+1 1:-146 2:-65 3:6 4:-299 5:3998 6:4000 7:4000 8:-639
+1 1:-94 2:14 3:16 4:-263 5:-587 6:4000 7:4000 8:-490
+1 1:8 2:154 3:-76 4:-65 5:-4000 6:4000 7:4000 8:-248
+1 1:82 2:150 3:-190 4:215 5:-4000 6:4000 7:4000 8:-104
+1 1:82 2:81 3:-314 4:386 5:-4000 6:4000 7:4000 8:164
+1 1:90 2:81 3:-221 4:394 5:-4000 6:4000 7:4000 8:377
+1 1:84 2:49 3:-190 4:480 5:-4000 6:4000 7:4000 8:293
+1 1:39 2:1 3:-212 4:561 5:-4000 6:4000 7:4000 8:194
+1 1:69 2:-1 3:-129 4:639 5:-4000 6:4000 7:278 8:302
+1 1:90 2:87 3:-3 4:600 5:-4000 6:4000 7:-1524 8:535
+1 1:41 2:72 3:110 4:215 5:-4000 6:4000 7:-1767 8:540
+1 1:-42 2:72 3:74 4:-79 5:-4000 6:4000 7:-1849 8:330
+1 1:-16 2:73 3:63 4:-175 5:-4000 6:4000 7:-2422 8:195
+1 1:95 2:38 3:55 4:-232 5:-4000 6:4000 7:-163 8:348
+1 1:142 2:13 3:9 4:-279 5:-4000 6:4000 7:4000 8:751
+1 1:155 2:-79 3:-91 4:-22 5:-4000 6:3131 7:4000 8:1185
+1 1:70 2:-169 3:-83 4:447 5:-4000 6:2515 7:4000 8:1598
+1 1:23 2:-181 3:-31 4:663 5:-4000 6:1126 7:4000 8:1895
+1 1:-15 2:-138 3:1 4:626 5:-4000 6:-77 7:-2642 8:1857
+1 1:-47 2:-84 3:52 4:390 5:-4000 6:-228 7:-4000 8:1727
+1 1:11 2:-35 3:-153 4:-65 5:-4000 6:-1290 7:-4000 8:1561
+1 1:-27 2:-93 3:-356 4:-818 5:-2793 6:-2250 7:-4000 8:1598
+1 1:-63 2:-137 3:-385 4:-1589 5:-1963 6:-2570 7:-4000 8:1771
+1 1:-103 2:-162 3:-255 4:-2000 5:-1525 6:-2420 7:-4000 8:1598
+1 1:-148 2:-174 3:-50 4:-2007 5:-2369 6:-2274 7:-4000 8:1322
+1 1:-136 2:-155 3:30 4:-1915 5:-3119 6:-1902 7:-4000 8:1047
+1 1:-117 2:-192 3:47 4:-1223 5:-3591 6:-1793 7:-4000 8:890
+1 1:-78 2:-249 3:-46 4:-849 5:-4000 6:-1811 7:-4000 8:785
+1 1:-59 2:-272 3:-13 4:-725 5:-4000 6:-1782 7:-4000 8:564
+1 1:-51 2:-234 3:16 4:-426 5:-4000 6:-2037 7:-4000 8:499
+1 1:-92 2:-178 3:-63 4:-332 5:-4000 6:-1734 7:-4000 8:551
+1 1:-71 2:-98 3:9 4:-18 5:-4000 6:-1487 7:-4000 8:457
+1 1:-21 2:-103 3:16 4:-161 5:-4000 6:-1200 7:-4000 8:312
+1 1:-44 2:-57 3:-61 4:-170 5:-4000 6:-1444 7:-4000 8:120
+1 1:-9 2:101 3:-43 4:162 5:-3053 6:-2025 7:-4000 8:23
+1 1:-38 2:172 3:-97 4:443 5:-2110 6:-2640 7:-4000 8:-96
+1 1:-84 2:212 3:-91 4:687 5:-1390 6:-3910 7:-4000 8:-418
+1 1:-36 2:217 3:-6 4:833 5:-1053 6:-4000 7:-4000 8:-618
+1 1:-17 2:164 3:-5 4:699 5:-1316 6:-4000 7:-4000 8:-899
+1 1:-13 2:111 3:36 4:379 5:-2163 6:-3530 7:-4000 8:-1131
+1 1:21 2:127 3:59 4:298 5:-2969 6:-2860 7:-4000 8:-1217
+1 1:35 2:92 3:109 4:381 5:-2990 6:-2597 7:-4000 8:-1318
+1 1:1 2:69 3:116 4:598 5:-3172 6:-2274 7:-2855 8:-1298
+1 1:24 2:74 3:48 4:569 5:-4000 6:-1902 7:-1657 8:-1238
+1 1:16 2:16 3:26 4:296 5:-4000 6:-1781 7:-1262 8:-1257
+1 1:-5 2:-19 3:2 4:286 5:-4000 6:-2023 7:-75 8:-1428
+1 1:-11 2:-51 3:-1 4:392 5:-4000 6:-2819 7:685 8:-1531
+1 1:10 2:-53 3:36 4:327 5:-4000 6:-4000 7:1931 8:-1589
+1 1:32 2:-69 3:-43 4:321 5:-4000 6:-4000 7:3205 8:-1498
+1 1:21 2:9 3:-92 4:345 5:-4000 6:-4000 7:4000 8:-1518
+1 1:11 2:99 3:-163 4:404 5:-3799 6:-4000 7:4000 8:-1596
+1 1:-4 2:124 3:-243 4:437 5:-3517 6:-4000 7:4000 8:-1738
+1 1:4 2:140 3:-255 4:372 5:-3387 6:-4000 7:4000 8:-1925
+1 1:-11 2:68 3:-288 4:360 5:-3185 6:-4000 7:4000 8:-1917
+1 1:14 2:79 3:-192 4:365 5:-2668 6:-4000 7:4000 8:-1957
+1 1:15 2:87 3:-98 4:459 5:-2147 6:-4000 7:4000 8:-1664
+1 1:3 2:68 3:-29 4:378 5:-1817 6:-4000 7:4000 8:-1274
+1 1:90 2:36 3:-40 4:219 5:-1803 6:-4000 7:4000 8:-1000
+1 1:249 2:7 3:-12 4:242 5:-1524 6:-3524 7:4000 8:-744
+1 1:368 2:13 3:42 4:207 5:-1422 6:-3968 7:4000 8:-730
+1 1:269 2:-3 3:28 4:163 5:-1267 6:-4000 7:4000 8:-614
+1 1:166 2:-19 3:88 4:177 5:-85 6:-4000 7:4000 8:-521
+1 1:168 2:-20 3:171 4:27 5:1733 6:-4000 7:4000 8:-394
+1 1:234 2:40 3:238 4:-232 5:3477 6:-4000 7:4000 8:-253
+1 1:123 2:30 3:135 4:-473 5:4000 6:-4000 7:4000 8:-179
+1 1:-141 2:82 3:-87 4:-401 5:4000 6:-4000 7:4000 8:-129
+1 1:-136 2:85 3:-151 4:27 5:4000 6:-4000 7:4000 8:-93
+1 1:-157 2:26 3:-25 4:231 5:4000 6:-4000 7:4000 8:-52
+1 1:-301 2:16 3:73 4:305 5:4000 6:-1780 7:4000 8:-108
+1 1:-378 2:-7 3:106 4:207 5:4000 6:117 7:4000 8:-168
+1 1:-386 2:-14 3:45 4:-198 5:4000 6:953 7:4000 8:-252
+1 1:-417 2:-3 3:-19 4:-570 5:4000 6:1537 7:4000 8:-366
+1 1:-435 2:11 3:-7 4:-695 5:4000 6:2255 7:4000 8:-547
+1 1:-310 2:-36 3:-97 4:-776 5:2710 6:3101 7:4000 8:-791
+1 1:-128 2:-43 3:-226 4:-1174 5:2801 6:3835 7:4000 8:-1019
+1 1:-68 2:-71 3:-255 4:-1370 5:3334 6:4000 7:4000 8:-1208
+1 1:-45 2:-40 3:-198 4:-1394 5:4000 6:4000 7:4000 8:-1404
+1 1:32 2:38 3:-59 4:-1266 5:4000 6:4000 7:2189 8:-1465
+1 1:8 2:54 3:150 4:-831 5:4000 6:3475 7:319 8:-1518
+1 1:-32 2:65 3:301 4:-261 5:4000 6:1710 7:82 8:-1542
+1 1:14 2:55 3:463 4:387 5:4000 6:179 7:1223 8:-1583
+1 1:146 2:65 3:451 4:821 5:4000 6:-1835 7:669 8:-1697
+1 1:494 2:77 3:374 4:968 5:4000 6:-3189 7:-1820 8:-1656
+1 1:717 2:49 3:272 4:1110 5:4000 6:-3441 7:-3854 8:-1650
+1 1:554 2:39 3:145 4:1175 5:4000 6:-3649 7:-4000 8:-1477
+1 1:369 2:30 3:64 4:923 5:4000 6:-3962 7:-4000 8:-1465
+1 1:269 2:0 3:-39 4:767 5:4000 6:-4000 7:-4000 8:-1764
+1 1:23 2:-46 3:-86 4:384 5:4000 6:-4000 7:-4000 8:-2193
+1 1:-49 2:-60 3:-129 4:-60 5:3016 6:-4000 7:-4000 8:-2746
+1 1:-68 2:-59 3:-133 4:-397 5:2622 6:-4000 7:-4000 8:-3154
+1 1:-318 2:-101 3:-166 4:-654 5:2569 6:-4000 7:-4000 8:-3504
+1 1:-361 2:-80 3:-174 4:-848 5:1049 6:-3049 7:-4000 8:-4000
+1 1:-453 2:-63 3:-128 4:-917 5:-408 6:-785 7:-4000 8:-4000
+1 1:-510 2:-36 3:-60 4:-589 5:-814 6:2056 7:-4000 8:-3799
+1 1:-375 2:-4 3:-3 4:-289 5:-876 6:4000 7:-4000 8:1112
+1 1:-207 2:-4 3:-5 4:-112 5:-2134 6:4000 7:-4000 8:4000
+1 1:-78 2:-37 3:-20 4:15 5:-2641 6:4000 7:-4000 8:4000
+1 1:-165 2:-44 3:-76 4:183 5:-2534 6:4000 7:-4000 8:4000
+1 1:-193 2:-20 3:-98 4:158 5:-4000 6:4000 7:-4000 8:4000
+1 1:-177 2:1 3:-114 4:46 5:-4000 6:2840 7:-4000 8:4000
+1 1:-136 2:64 3:-182 4:-149 5:-4000 6:3101 7:-4000 8:4000
+1 1:-62 2:91 3:-165 4:-228 5:-4000 6:4000 7:-4000 8:4000
+1 1:-34 2:47 3:-102 4:-37 5:-4000 6:4000 7:-4000 8:4000
+1 1:38 2:36 3:-54 4:93 5:-4000 6:2971 7:-3051 8:3912
+1 1:147 2:64 3:-13 4:194 5:-4000 6:611 7:-66 8:994
+1 1:188 2:81 3:4 4:156 5:-4000 6:611 7:1922 8:-883
+1 1:139 2:84 3:-40 4:90 5:-4000 6:376 7:2517 8:-2003
+1 1:151 2:42 3:-114 4:60 5:-4000 6:-106 7:2047 8:-2735
+1 1:176 2:42 3:-151 4:126 5:-3730 6:-651 7:1098 8:-3386
+1 1:204 2:57 3:-81 4:234 5:-2643 6:-1123 7:939 8:-3659
+1 1:260 2:72 3:23 4:268 5:-1398 6:-715 7:1255 8:-3846
+1 1:234 2:85 3:11 4:115 5:-1338 6:219 7:1931 8:-3858
+1 1:182 2:78 3:8 4:-92 5:-1239 6:1051 7:3294 8:-3779
+1 1:49 2:64 3:-63 4:-221 5:-9 6:1649 7:4000 8:-3333
+1 1:-84 2:46 3:-133 4:-137 5:772 6:2060 7:4000 8:-2811
+1 1:-58 2:73 3:-45 4:111 5:3982 6:2295 7:4000 8:-2230
+1 1:-51 2:103 3:3 4:169 5:4000 6:2442 7:4000 8:-1599
+1 1:-5 2:147 3:68 4:219 5:4000 6:2382 7:4000 8:-1168
+1 1:-21 2:107 3:85 4:191 5:4000 6:2255 7:4000 8:-753
+1 1:-63 2:24 3:142 4:20 5:4000 6:2356 7:3551 8:-480
+1 1:-17 2:29 3:237 4:-79 5:4000 6:2580 7:4000 8:-378
+1 1:-36 2:3 3:180 4:-93 5:4000 6:2356 7:4000 8:-494
+1 1:-71 2:-23 3:85 4:-31 5:4000 6:2102 7:4000 8:-435
+1 1:-136 2:-33 3:-1 4:65 5:4000 6:2319 7:4000 8:-418
+1 1:-100 2:-26 3:62 4:98 5:4000 6:2243 7:4000 8:-899
+1 1:-4 2:-35 3:85 4:22 5:4000 6:1862 7:4000 8:-1662
+1 1:-42 2:-104 3:31 4:-8 5:4000 6:1755 7:4000 8:-2580
+1 1:-84 2:-116 3:-29 4:-129 5:4000 6:1734 7:4000 8:-3349
+1 1:-170 2:-118 3:-14 4:-315 5:4000 6:1929 7:4000 8:-3862
+1 1:-170 2:-76 3:20 4:-271 5:4000 6:2255 7:3400 8:-4000
+1 1:-123 2:-20 3:-1 4:-129 5:4000 6:2422 7:3086 8:-4000
+1 1:-93 2:19 3:15 4:-28 5:4000 6:2905 7:3062 8:-4000
+1 1:25 2:71 3:-99 4:-1 5:4000 6:3292 7:3075 8:-4000
+1 1:2 2:46 3:-128 4:81 5:4000 6:3426 7:3038 8:-4000
+1 1:6 2:17 3:-84 4:95 5:4000 6:3018 7:2843 8:-3931
+1 1:53 2:-21 3:-77 4:107 5:4000 6:2060 7:2682 8:-3264
+1 1:76 2:-10 3:-53 4:134 5:4000 6:1222 7:2358 8:-2746
+1 1:88 2:-27 3:-46 4:111 5:4000 6:628 7:1711 8:-2474
+1 1:64 2:-83 3:-6 4:112 5:1710 6:189 7:866 8:-2635
+1 1:72 2:-122 3:-48 4:69 5:-1059 6:-564 7:48 8:-2932
+1 1:61 2:-153 3:-75 4:62 5:-3600 6:-1290 7:-876 8:-3237
+1 1:61 2:-111 3:-81 4:43 5:-4000 6:-1302 7:-1830 8:-3736
+1 1:80 2:-127 3:-71 4:57 5:-4000 6:-1200 7:-1989 8:-4000
+1 1:80 2:-92 3:11 4:44 5:-4000 6:-1847 7:-1462 8:-4000
+1 1:51 2:-31 3:42 4:3 5:-4000 6:-2178 7:-786 8:-4000
+1 1:36 2:-67 3:97 4:2 5:-4000 6:-2246 7:-723 8:-4000
+1 1:4 2:-78 3:53 4:-39 5:-4000 6:-1847 7:-1524 8:-4000
+1 1:-27 2:-87 3:17 4:-34 5:-4000 6:-831 7:-2441 8:-4000
+1 1:-54 2:-101 3:-33 4:-41 5:-4000 6:13 7:-2966 8:-4000
+1 1:-81 2:-88 3:-121 4:-59 5:-4000 6:254 7:-2408 8:-4000
+1 1:-13 2:-80 3:-82 4:-57 5:-4000 6:348 7:-1185 8:-4000
+1 1:109 2:-86 3:-98 4:-82 5:-2641 6:1180 7:-484 8:-4000
+1 1:228 2:-135 3:-129 4:-38 5:-182 6:1899 7:-876 8:-4000
+1 1:408 2:-165 3:-168 4:6 5:460 6:2227 7:-2043 8:-4000
+1 1:519 2:-118 3:-204 4:-3 5:-288 6:2359 7:-2707 8:-4000
+1 1:442 2:-93 3:-163 4:27 5:-2550 6:2556 7:-2512 8:-4000
+1 1:395 2:-57 3:-107 4:66 5:-4000 6:2188 7:-1767 8:-3858
+1 1:285 2:-8 3:-97 4:122 5:-4000 6:757 7:-1254 8:-3319
+1 1:195 2:5 3:-30 4:205 5:-4000 6:-665 7:-1766 8:-2649
+1 1:315 2:50 3:66 4:174 5:-4000 6:-1430 7:-2573 8:-1860
+1 1:448 2:55 3:61 4:80 5:-4000 6:-1355 7:-3648 8:-1217
+1 1:250 2:3 3:47 4:-15 5:-4000 6:-705 7:-4000 8:-556
+1 1:-124 2:0 3:73 4:-144 5:-4000 6:201 7:-4000 8:140
+1 1:-535 2:-12 3:161 4:-206 5:-4000 6:919 7:-3792 8:817
+1 1:-1146 2:36 3:167 4:-232 5:-4000 6:1331 7:-2667 8:1513
+1 1:-1479 2:46 3:93 4:-258 5:-4000 6:1531 7:-1332 8:2054
+1 1:-1495 2:-5 3:54 4:-291 5:-4000 6:1482 7:-780 8:2639
+1 1:-1202 2:53 3:24 4:-218 5:-4000 6:1191 7:-811 8:3346
+1 1:-844 2:98 3:13 4:-122 5:-4000 6:540 7:-1461 8:3979
+1 1:-396 2:120 3:36 4:23 5:-4000 6:-170 7:-2061 8:4000
+1 1:204 2:179 3:75 4:50 5:-4000 6:-698 7:-1950 8:4000
+1 1:235 2:168 3:31 4:-5 5:-4000 6:-1095 7:-1728 8:4000
+1 1:263 2:136 3:28 4:41 5:-4000 6:-1420 7:-1641 8:4000
+1 1:186 2:121 3:446 4:-23 5:-4000 6:-1715 7:-1397 8:4000
+1 1:234 2:122 3:2087 4:-13 5:-4000 6:-1961 7:-745 8:4000
+1 1:460 2:120 3:2917 4:53 5:-4000 6:-2024 7:380 8:4000
+1 1:263 2:75 3:1314 4:-1 5:-4000 6:-1800 7:824 8:4000
+1 1:334 2:89 3:41 4:-159 5:-4000 6:-1682 7:685 8:4000
+1 1:649 2:60 3:-616 4:-288 5:-4000 6:-1648 7:795 8:4000
+1 1:711 2:57 3:-1251 4:-328 5:-2134 6:-1587 7:1461 8:4000
+1 1:501 2:48 3:-1427 4:-255 5:2255 6:-1460 7:2358 8:4000
+1 1:442 2:40 3:-1286 4:-130 5:4000 6:-1229 7:2444 8:4000
+1 1:458 2:69 3:-1041 4:-85 5:4000 6:-1200 7:1864 8:4000
+1 1:-132 2:38 3:-976 4:-114 5:4000 6:-1490 7:1214 8:4000
+1 1:-598 2:-5 3:-761 4:-39 5:4000 6:-1900 7:367 8:4000
+1 1:-474 2:-41 3:-513 4:120 5:4000 6:-2351 7:-1302 8:4000
+1 1:-533 2:-107 3:-444 4:238 5:4000 6:-2934 7:-3326 8:4000
+1 1:-641 2:-172 3:-642 4:394 5:4000 6:-3524 7:-4000 8:4000
+1 1:-396 2:-155 3:-693 4:415 5:4000 6:-4000 7:-4000 8:4000
+1 1:-240 2:-150 3:-649 4:329 5:4000 6:-4000 7:-4000 8:3845
+1 1:-94 2:-98 3:-517 4:280 5:4000 6:-4000 7:-4000 8:3226
+1 1:-114 2:-49 3:-315 4:209 5:4000 6:-4000 7:-3977 8:2704
+1 1:-147 2:25 3:-129 4:187 5:4000 6:-4000 7:-3455 8:2160
+1 1:8 2:77 3:128 4:92 5:4000 6:-4000 7:-2612 8:1704
+1 1:20 2:54 3:3 4:47 5:4000 6:-4000 7:-1885 8:1293
+1 1:1 2:87 3:55 4:77 5:4000 6:-4000 7:-2270 8:941
+1 1:-23 2:103 3:205 4:-11 5:4000 6:-4000 7:-3119 8:621
+1 1:70 2:80 3:211 4:-124 5:4000 6:-4000 7:-2966 8:239
+1 1:-17 2:-33 3:434 4:-202 5:4000 6:-4000 7:-1576 8:-79
+1 1:-154 2:-92 3:266 4:-336 5:4000 6:-4000 7:-157 8:-327
+1 1:-126 2:-80 3:-156 4:-517 5:4000 6:-4000 7:532 8:-500
+1 1:28 2:-101 3:-80 4:-435 5:4000 6:-3911 7:380 8:-687
+1 1:594 2:-155 3:400 4:-210 5:4000 6:-3244 7:-355 8:-870
+1 1:1147 2:-161 3:579 4:-148 5:4000 6:-2250 7:-1260 8:-1059
+1 1:1319 2:-67 3:841 4:-96 5:4000 6:-1330 7:-2082 8:-1274
+1 1:1018 2:-19 3:882 4:6 5:4000 6:-1050 7:-2735 8:-1534
+1 1:908 2:-8 3:724 4:95 5:4000 6:-722 7:-2508 8:-1921
+1 1:1081 2:-46 3:710 4:142 5:4000 6:274 7:-1200 8:-2217
+1 1:240 2:-73 3:761 4:197 5:4000 6:1722 7:181 8:-2409
+1 1:-521 2:7 3:686 4:218 5:4000 6:2940 7:1092 8:-2509
+1 1:-547 2:87 3:103 4:307 5:4000 6:4000 7:1314 8:-2536
+1 1:-1025 2:95 3:-320 4:422 5:4000 6:4000 7:1084 8:-2543
+1 1:-940 2:172 3:-564 4:455 5:4000 6:4000 7:640 8:-2575
+1 1:-700 2:262 3:-572 4:496 5:4000 6:4000 7:455 8:-2543
+1 1:-738 2:233 3:-491 4:358 5:4000 6:4000 7:1164 8:-2377
+1 1:-801 2:146 3:-276 4:24 5:4000 6:4000 7:2429 8:-2302
+1 1:-1031 2:93 3:-5 4:-224 5:4000 6:4000 7:3475 8:-2230
+1 1:-760 2:146 3:171 4:-365 5:4000 6:4000 7:4000 8:-2187
+1 1:-407 2:168 3:533 4:-373 5:4000 6:4000 7:4000 8:-2187
+1 1:-99 2:127 3:801 4:-466 5:4000 6:4000 7:4000 8:-2140
+1 1:147 2:82 3:148 4:-505 5:4000 6:4000 7:3429 8:-2104
+1 1:522 2:54 3:-674 4:-193 5:1704 6:4000 7:2635 8:-2140
+1 1:668 2:37 3:-906 4:59 5:-1518 6:4000 7:2031 8:-2206
+1 1:465 2:-46 3:-1321 4:431 5:-1506 6:4000 7:1540 8:-2254
+1 1:439 2:-161 3:-1215 4:793 5:-514 6:4000 7:1345 8:-2254
+1 1:563 2:-211 3:-810 4:681 5:-746 6:4000 7:1467 8:-2181
+1 1:498 2:-242 3:-110 4:533 5:-94 6:4000 7:1599 8:-2063
+1 1:52 2:-208 3:364 4:248 5:3945 6:4000 7:1538 8:-1921
+1 1:90 2:-80 3:451 4:-98 5:4000 6:3611 7:1190 8:-1837
+1 1:674 2:-25 3:686 4:-303 5:2060 6:3296 7:824 8:-1662
+1 1:399 2:15 3:793 4:-515 5:-2057 6:3212 7:555 8:-1497
+1 1:-512 2:-5 3:830 4:-652 5:-3612 6:3166 7:521 8:-1363
+1 1:-584 2:-24 3:557 4:-719 5:-2277 6:3849 7:391 8:-1298
+1 1:-485 2:22 3:644 4:-676 5:-4000 6:4000 7:-24 8:-1274
+1 1:-109 2:127 3:2005 4:-523 5:-4000 6:4000 7:-420 8:-1270
+1 1:52 2:186 3:3658 4:-267 5:-4000 6:4000 7:-990 8:-1274
+1 1:-250 2:130 3:2225 4:-171 5:-4000 6:3617 7:-1641 8:-1208
+1 1:-306 2:126 3:-490 4:-265 5:-4000 6:3283 7:-2210 8:-1186
+1 1:439 2:63 3:-2204 4:-397 5:-4000 6:3199 7:-2502 8:-1204
+1 1:2727 2:83 3:-3070 4:-473 5:-4000 6:2944 7:-2486 8:-1204
+1 1:3395 2:-13 3:-2300 4:-347 5:-4000 6:2775 7:-2241 8:-1168
+1 1:2137 2:-63 3:-1687 4:-172 5:-4000 6:2580 7:-1915 8:-1168
+1 1:824 2:34 3:-825 4:-51 5:-4000 6:2377 7:-1903 8:-1083
+1 1:-34 2:-19 3:-389 4:-47 5:-4000 6:2188 7:-1588 8:-875
+1 1:-828 2:-20 3:-620 4:-59 5:-4000 6:1982 7:-1093 8:-708
+1 1:-1817 2:-88 3:-969 4:10 5:-4000 6:1774 7:-1114 8:-521
+1 1:-2350 2:-117 3:-690 4:228 5:-4000 6:1643 7:-1397 8:-357
+1 1:-2676 2:-176 3:-142 4:160 5:-4000 6:1474 7:-1524 8:-158
+1 1:-2517 2:-310 3:-497 4:-10 5:-4000 6:1082 7:-1006 8:71
+1 1:-1525 2:-306 3:-609 4:337 5:-4000 6:506 7:-542 8:271
+1 1:342 2:-203 3:-568 4:533 5:-4000 6:-240 7:-483 8:448
+1 1:2002 2:-28 3:14 4:360 5:-4000 6:-1010 7:-185 8:604
+1 1:1702 2:-34 3:785 4:215 5:-4000 6:-1727 7:498 8:772
+1 1:-124 2:-34 3:1161 4:329 5:-4000 6:-2439 7:1845 8:947
+1 1:-1597 2:81 3:1068 4:437 5:-4000 6:-3116 7:3918 8:1142
+1 1:-2455 2:158 3:1605 4:256 5:-4000 6:-3661 7:4000 8:1246
+1 1:-2661 2:282 3:2526 4:115 5:-4000 6:-4000 7:4000 8:1114
+1 1:-2896 2:266 3:2746 4:40 5:-4000 6:-4000 7:4000 8:853
+1 1:-2370 2:164 3:2486 4:-97 5:-4000 6:-4000 7:4000 8:564
+1 1:-1615 2:-25 3:1062 4:-104 5:-4000 6:-4000 7:4000 8:369
+1 1:-1147 2:-218 3:-173 4:-149 5:-4000 6:-4000 7:4000 8:265
+1 1:465 2:-94 3:-711 4:-224 5:-4000 6:-4000 7:4000 8:134
+1 1:1607 2:83 3:14 4:-173 5:-4000 6:-4000 7:4000 8:47
+1 1:2418 2:159 3:211 4:-109 5:-4000 6:-4000 7:4000 8:-105
+1 1:2862 2:168 3:-1552 4:-19 5:-4000 6:-4000 7:4000 8:-297
+1 1:3029 2:154 3:-2210 4:236 5:-3653 6:-4000 7:4000 8:-427
+1 1:2093 2:113 3:-2672 4:363 5:495 6:-4000 7:4000 8:-561
+1 1:538 2:8 3:-2578 4:240 5:4000 6:-4000 7:4000 8:-673
+1 1:-105 2:26 3:-2398 4:179 5:4000 6:-3895 7:4000 8:-753
+1 1:-571 2:239 3:-1779 4:63 5:4000 6:-3244 7:4000 8:-846
+1 1:-759 2:294 3:-566 4:-48 5:4000 6:-2626 7:4000 8:-948
+1 1:-1204 2:301 3:-570 4:-163 5:4000 6:-1848 7:4000 8:-1039
+1 1:-1294 2:400 3:119 4:-324 5:4000 6:-936 7:4000 8:-1168
+1 1:-807 2:408 3:295 4:-558 5:4000 6:38 7:4000 8:-1321
+1 1:-48 2:347 3:214 4:-837 5:4000 6:823 7:4000 8:-1321
+1 1:660 2:190 3:642 4:-963 5:4000 6:1519 7:3839 8:-1143
+1 1:1156 2:39 3:1347 4:-757 5:4000 6:1929 7:1996 8:-914
+1 1:1238 2:-179 3:1900 4:-511 5:4000 6:2056 7:1670 8:-726
+1 1:711 2:-207 3:1328 4:-366 5:4000 6:1970 7:-724 8:-427
+1 1:510 2:-215 3:410 4:-160 5:4000 6:1677 7:-4000 8:-223
+1 1:342 2:-207 3:170 4:-141 5:4000 6:1474 7:-4000 8:43
+1 1:262 2:-82 3:663 4:-312 5:4000 6:1277 7:-4000 8:369
+1 1:104 2:-140 3:1757 4:-456 5:4000 6:1092 7:-4000 8:609
+1 1:113 2:-101 3:2729 4:-456 5:4000 6:986 7:-4000 8:876
+1 1:199 2:-126 3:2486 4:-373 5:4000 6:693 7:-4000 8:1049
+1 1:-53 2:-50 3:1247 4:-223 5:4000 6:293 7:-4000 8:1216
+1 1:-221 2:64 3:-5 4:-202 5:4000 6:-14 7:-4000 8:1392
+1 1:-461 2:1 3:-1126 4:-237 5:4000 6:-53 7:-4000 8:1476
+1 1:-319 2:58 3:-2239 4:-171 5:4000 6:49 7:-4000 8:1533
+1 1:35 2:207 3:-2415 4:0 5:4000 6:-158 7:-4000 8:1525
+1 1:436 2:354 3:-2475 4:191 5:4000 6:-773 7:-4000 8:1443
+1 1:759 2:212 3:-2253 4:272 5:4000 6:-1330 7:-4000 8:1281
+1 1:855 2:44 3:-948 4:309 5:4000 6:-1546 7:-4000 8:1047
+1 1:908 2:-67 3:-98 4:272 5:4000 6:-1701 7:-4000 8:621
+1 1:784 2:-159 3:-401 4:290 5:4000 6:-1656 7:-4000 8:147
+1 1:668 2:-178 3:-409 4:317 5:4000 6:-1574 7:-4000 8:-281
+1 1:540 2:-356 3:85 4:323 5:-372 6:-1737 7:-4000 8:-573
+1 1:431 2:-448 3:-342 4:195 5:-4000 6:-1701 7:-4000 8:-817
+1 1:182 2:-598 3:-190 4:-11 5:-4000 6:-1310 7:-4000 8:-1078
+1 1:-99 2:-582 3:410 4:19 5:-4000 6:-758 7:-4000 8:-1315
+1 1:-155 2:-188 3:838 4:194 5:-4000 6:-285 7:-4000 8:-1642
+1 1:-351 2:-28 3:1182 4:303 5:-4000 6:250 7:-4000 8:-1860
+1 1:-521 2:-179 3:1509 4:292 5:-4000 6:544 7:-4000 8:-1884
+1 1:-476 2:-181 3:1704 4:282 5:-4000 6:669 7:-4000 8:-1723
+1 1:-440 2:-80 3:1283 4:146 5:-4000 6:896 7:-4000 8:-1270
+1 1:-333 2:-5 3:1387 4:169 5:-4000 6:966 7:-4000 8:-778
+1 1:-237 2:-35 3:1249 4:394 5:-4000 6:966 7:-4000 8:-280
+1 1:-221 2:-57 3:736 4:513 5:-4000 6:980 7:-2615 8:330
+1 1:-190 2:-54 3:-212 4:655 5:-4000 6:1118 7:-832 8:938
+1 1:-158 2:26 3:-782 4:687 5:-4000 6:1417 7:-1136 8:1411
+1 1:-113 2:201 3:-419 4:642 5:-4000 6:1734 7:-2402 8:1915
+1 1:-191 2:213 3:-380 4:533 5:-4000 6:1799 7:-3273 8:2498
+1 1:-236 2:191 3:-434 4:410 5:-4000 6:1909 7:-2792 8:3079
+1 1:-205 2:117 3:-739 4:345 5:-4000 6:2182 7:-1337 8:3548
+1 1:-258 2:53 3:-1016 4:243 5:-4000 6:2230 7:1418 8:3747
+1 1:-193 2:-42 3:-1036 4:85 5:-4000 6:2159 7:4000 8:3831
+1 1:-155 2:-168 3:-1138 4:-59 5:-1731 6:2115 7:4000 8:3291
+1 1:-132 2:-188 3:-1492 4:-92 5:4000 6:1964 7:4000 8:1989
+1 1:-119 2:-122 3:-1367 4:-85 5:4000 6:1787 7:4000 8:727
+1 1:-124 2:18 3:-871 4:-5 5:4000 6:1663 7:4000 8:-579
+1 1:-42 2:74 3:-462 4:0 5:4000 6:1547 7:1996 8:-2084
+1 1:-64 2:152 3:132 4:14 5:4000 6:1720 7:482 8:-3534
+1 1:-77 2:147 3:272 4:118 5:4000 6:2188 7:702 8:-4000
+1 1:-51 2:78 3:541 4:195 5:4000 6:2556 7:1723 8:-4000
+1 1:-36 2:103 3:988 4:215 5:4000 6:2644 7:3838 8:-4000
+1 1:-29 2:74 3:1224 4:150 5:4000 6:3212 7:4000 8:-4000
+1 1:-23 2:86 3:714 4:115 5:4000 6:3621 7:1136 8:-4000
+1 1:11 2:108 3:364 4:54 5:4000 6:2775 7:-941 8:-4000
+1 1:-13 2:78 3:306 4:73 5:4000 6:1915 7:-1944 8:-4000
+1 1:-40 2:78 3:93 4:18 5:4000 6:693 7:-4000 8:-2150
+1 1:-20 2:81 3:80 4:-51 5:4000 6:-564 7:-4000 8:1785
+1 1:-18 2:97 3:-133 4:-9 5:4000 6:469 7:-4000 8:4000
+1 1:-25 2:121 3:55 4:-82 5:4000 6:1777 7:-4000 8:4000
+1 1:-17 2:84 3:-188 4:-91 5:4000 6:1466 7:-4000 8:4000
+1 1:-16 2:48 3:-139 4:-92 5:4000 6:35 7:-4000 8:4000
+1 1:-50 2:10 3:-46 4:-121 5:4000 6:-3524 7:-4000 8:4000
+1 1:-70 2:-39 3:-376 4:-69 5:4000 6:-4000 7:-3192 8:4000
+1 1:-68 2:-64 3:-350 4:-57 5:4000 6:-2311 7:-2640 8:4000
+1 1:-58 2:-96 3:-401 4:-71 5:4000 6:441 7:-3013 8:4000
+1 1:-16 2:-63 3:-102 4:-79 5:4000 6:97 7:-3648 8:4000
+1 1:1 2:18 3:-90 4:-111 5:4000 6:-550 7:-3338 8:4000
+1 1:13 2:93 3:-121 4:-170 5:3102 6:-1735 7:-2804 8:4000
+1 1:5 2:205 3:30 4:-167 5:1734 6:-2400 7:-2097 8:4000
+1 1:25 2:247 3:43 4:-167 5:367 6:-3376 7:815 8:4000
+1 1:43 2:288 3:280 4:-185 5:-1052 6:-3048 7:4000 8:4000
+1 1:36 2:607 3:345 4:-182 5:-2194 6:-940 7:4000 8:4000
+1 1:31 2:976 3:288 4:-214 5:-3839 6:-396 7:4000 8:4000
+1 1:0 2:876 3:349 4:-254 5:-4000 6:-333 7:4000 8:906
+1 1:-12 2:651 3:543 4:-258 5:-4000 6:-499 7:4000 8:-3272
+1 1:-106 2:477 3:259 4:-215 5:-4000 6:-745 7:4000 8:-4000
+1 1:-149 2:106 3:-128 4:-178 5:-3689 6:-1487 7:4000 8:-4000
+1 1:-96 2:-430 3:-188 4:-80 5:-2318 6:-802 7:4000 8:-4000
+1 1:-66 2:-1005 3:-463 4:-22 5:-2503 6:831 7:4000 8:-4000
+1 1:-73 2:-1479 3:-449 4:5 5:-2740 6:1440 7:4000 8:-4000
+1 1:-94 2:-1808 3:-430 4:81 5:-374 6:2319 7:4000 8:-4000
+1 1:-3 2:-1479 3:-224 4:144 5:4000 6:2956 7:4000 8:-4000
+1 1:98 2:-1061 3:428 4:128 5:4000 6:3199 7:4000 8:-4000
+1 1:161 2:-598 3:929 4:52 5:4000 6:3461 7:4000 8:-4000
+1 1:155 2:111 3:642 4:43 5:4000 6:3556 7:4000 8:-4000
+1 1:71 2:376 3:269 4:-6 5:4000 6:3491 7:4000 8:-4000
+1 1:52 2:512 3:89 4:-63 5:4000 6:3409 7:4000 8:-4000
+1 1:0 2:477 3:-210 4:-40 5:4000 6:3995 7:4000 8:-4000
+1 1:-12 2:467 3:-201 4:27 5:4000 6:4000 7:4000 8:-4000
+1 1:-27 2:355 3:-247 4:61 5:4000 6:3212 7:4000 8:-4000
+1 1:-142 2:-55 3:-129 4:22 5:2971 6:1466 7:4000 8:-2259
+1 1:-140 2:-206 3:-79 4:12 5:-395 6:-252 7:4000 8:1270
+1 1:-113 2:-310 3:-54 4:-33 5:-3852 6:-331 7:4000 8:4000
+1 1:-128 2:-591 3:-66 4:-76 5:-4000 6:747 7:4000 8:4000
+1 1:-142 2:-635 3:-105 4:-82 5:-4000 6:547 7:4000 8:4000
+1 1:-126 2:-371 3:-104 4:-166 5:-4000 6:-154 7:4000 8:4000
+1 1:-61 2:56 3:-143 4:-196 5:-734 6:-1495 7:4000 8:4000
+1 1:16 2:269 3:-92 4:-119 5:4000 6:-3504 7:3086 8:4000
+1 1:110 2:477 3:-121 4:-34 5:4000 6:-4000 7:989 8:4000
+1 1:220 2:797 3:44 4:19 5:4000 6:-4000 7:-305 8:4000
+1 1:241 2:746 3:324 4:-1 5:-4000 6:-4000 7:-672 8:4000
+1 1:287 2:839 3:402 4:-22 5:-4000 6:-158 7:-927 8:4000
+1 1:358 2:846 3:93 4:-79 5:-4000 6:2385 7:-1356 8:4000
+1 1:277 2:485 3:-64 4:-119 5:4000 6:2840 7:-802 8:4000
+1 1:113 2:179 3:-125 4:-123 5:4000 6:2881 7:-513 8:4000
+1 1:-49 2:13 3:-236 4:-136 5:4000 6:1964 7:-521 8:4000
+1 1:-116 2:29 3:-28 4:-110 5:4000 6:2227 7:-309 8:4000
+1 1:-104 2:130 3:312 4:-113 5:4000 6:2100 7:-373 8:4000
+1 1:-60 2:158 3:288 4:-111 5:4000 6:221 7:-484 8:4000
+1 1:-67 2:81 3:-53 4:-133 5:4000 6:-2141 7:-813 8:3467
+1 1:-85 2:-22 3:-201 4:-141 5:4000 6:-4000 7:-651 8:3226
+1 1:-111 2:-50 3:-336 4:-83 5:4000 6:-4000 7:-917 8:3096
+1 1:-155 2:-142 3:-263 4:8 5:4000 6:-4000 7:-2288 8:1897
+1 1:-85 2:-41 3:-173 4:46 5:4000 6:-4000 7:-3407 8:-70
+1 1:-100 2:193 3:-128 4:10 5:4000 6:-4000 7:-3993 8:-1018
+1 1:-120 2:273 3:-64 4:-33 5:4000 6:-4000 7:-4000 8:-1824
+1 1:-85 2:314 3:8 4:-45 5:4000 6:-4000 7:-4000 8:-3329
+1 1:-80 2:217 3:152 4:-80 5:3285 6:-4000 7:-4000 8:-4000
+1 1:-23 2:41 3:334 4:-90 5:3660 6:-4000 7:-4000 8:-4000
+1 1:-63 2:-173 3:689 4:-105 5:3293 6:-4000 7:-4000 8:-3984
+1 1:-123 2:-383 3:598 4:-115 5:3397 6:-3767 7:-4000 8:-3712
+1 1:-122 2:-545 3:149 4:-101 5:-746 6:-2965 7:-4000 8:-4000
+1 1:-181 2:-625 3:-184 4:-121 5:-4000 6:-2506 7:-4000 8:-4000
+1 1:-244 2:-632 3:-503 4:-70 5:-4000 6:-1819 7:-4000 8:-4000
+1 1:-209 2:-663 3:-405 4:-75 5:-4000 6:-1042 7:-4000 8:-4000
+1 1:-195 2:-609 3:20 4:-47 5:-4000 6:-252 7:-4000 8:-2230
+1 1:-201 2:-361 3:439 4:10 5:-4000 6:214 7:-4000 8:-1013
+1 1:-163 2:-75 3:714 4:-1 5:-4000 6:961 7:-4000 8:3
+1 1:-67 2:179 3:1053 4:-18 5:-4000 6:1799 7:-4000 8:1533
+1 1:47 2:317 3:1062 4:-32 5:-4000 6:2500 7:-4000 8:3470
+1 1:74 2:279 3:372 4:-72 5:-4000 6:2515 7:-4000 8:4000
+1 1:117 2:228 3:55 4:-129 5:-4000 6:1994 7:-4000 8:4000
+1 1:82 2:152 3:-418 4:-79 5:-4000 6:1474 7:-4000 8:4000
+1 1:64 2:77 3:-896 4:-37 5:-4000 6:1567 7:-4000 8:4000
+1 1:52 2:4 3:-1072 4:23 5:-4000 6:2515 7:-4000 8:4000
+1 1:21 2:-29 3:-896 4:48 5:-4000 6:3947 7:-4000 8:4000
+1 1:21 2:-53 3:-257 4:41 5:-4000 6:4000 7:-4000 8:4000
+1 1:12 2:-86 3:110 4:15 5:-4000 6:4000 7:-4000 8:4000
+1 1:16 2:-91 3:1566 4:-11 5:-4000 6:3670 7:-4000 8:4000
+1 1:9 2:-78 3:2792 4:-22 5:-4000 6:2162 7:-4000 8:4000
+1 1:37 2:-26 3:1891 4:-2 5:-4000 6:1026 7:-4000 8:3845
+1 1:65 2:-14 3:914 4:65 5:-4000 6:241 7:-4000 8:3487
+1 1:88 2:4 3:-629 4:111 5:-4000 6:-576 7:-4000 8:3014
+1 1:90 2:-31 3:-1872 4:181 5:-4000 6:-1546 7:-4000 8:2640
+1 1:118 2:-21 3:-2373 4:161 5:-4000 6:-1961 7:-4000 8:2548
+1 1:122 2:66 3:-2928 4:123 5:-4000 6:-1062 7:-4000 8:2380
+1 1:113 2:29 3:-2983 4:102 5:-4000 6:105 7:-4000 8:2184
+1 1:122 2:-57 3:-2851 4:91 5:-4000 6:309 7:-4000 8:1859
+1 1:68 2:5 3:-2399 4:93 5:-4000 6:298 7:-3230 8:1606
+1 1:-36 2:168 3:-1732 4:36 5:-4000 6:534 7:-2095 8:1434
+1 1:-74 2:355 3:-922 4:48 5:-3791 6:681 7:-986 8:1272
+1 1:-60 2:449 3:-269 4:71 5:-2638 6:283 7:-393 8:1374
+1 1:-45 2:359 3:801 4:22 5:-1945 6:-875 7:-195 8:1325
+1 1:-77 2:290 3:1759 4:74 5:-928 6:-2054 7:-53 8:1085
+1 1:-143 2:282 3:1741 4:100 5:-147 6:-2141 7:-679 8:947
+1 1:-36 2:294 3:742 4:36 5:725 6:-1075 7:-2637 8:800
+1 1:72 2:160 3:304 4:30 5:1537 6:-327 7:-4000 8:395
+1 1:131 2:-48 3:49 4:-15 5:1900 6:-419 7:-4000 8:-194
+1 1:142 2:-211 3:-579 4:-84 5:2443 6:-1034 7:-3790 8:-492
+1 1:86 2:-326 3:-894 4:-135 5:1836 6:-1835 7:-2308 8:-540
+1 1:48 2:-278 3:-1166 4:-179 5:248 6:-2465 7:-946 8:-696
+1 1:-23 2:-280 3:-996 4:-195 5:-136 6:-2575 7:32 8:-622
+1 1:-13 2:-272 3:-649 4:-115 5:407 6:-2392 7:639 8:-122
+1 1:-10 2:-220 3:207 4:-45 5:794 6:-2026 7:1288 8:-133
+1 1:-1 2:-183 3:830 4:-37 5:2516 6:-1444 7:1906 8:120
+1 1:14 2:-154 3:1379 4:46 5:4000 6:-932 7:1931 8:671
+1 1:13 2:-112 3:1744 4:53 5:4000 6:-348 7:2843 8:846
+1 1:21 2:-74 3:1835 4:20 5:4000 6:311 7:4000 8:63
+1 1:25 2:-63 3:1999 4:74 5:4000 6:929 7:4000 8:-2906
+1 1:43 2:-24 3:1940 4:115 5:4000 6:1449 7:4000 8:-4000
+1 1:32 2:-56 3:3658 4:144 5:4000 6:1799 7:4000 8:-4000
+1 1:61 2:-20 3:4000 4:154 5:4000 6:2102 7:4000 8:-4000
+1 1:21 2:8 3:2461 4:111 5:4000 6:2243 7:4000 8:-4000
+1 1:-6 2:-4 3:451 4:64 5:4000 6:2355 7:4000 8:-4000
+1 1:9 2:34 3:-1258 4:30 5:4000 6:2450 7:4000 8:-4000
+1 1:7 2:40 3:-2346 4:-25 5:4000 6:2503 7:4000 8:-4000
+1 1:4 2:67 3:-2085 4:-33 5:4000 6:2515 7:4000 8:-3386
+1 1:-10 2:108 3:-1036 4:-97 5:4000 6:2490 7:4000 8:-3864
+1 1:-26 2:109 3:280 4:-160 5:4000 6:2385 7:4000 8:-4000
+1 1:-27 2:82 3:8 4:-116 5:4000 6:2320 7:1013 8:-4000
+1 1:-16 2:86 3:-174 4:-43 5:4000 6:2255 7:-4000 8:-4000
+1 1:27 2:91 3:-514 4:-43 5:4000 6:2060 7:-4000 8:-4000
+1 1:46 2:69 3:-816 4:-97 5:4000 6:1771 7:-4000 8:-4000
+1 1:37 2:26 3:-898 4:-46 5:4000 6:1409 7:-4000 8:-2295
+1 1:54 2:12 3:-1277 4:51 5:4000 6:1120 7:-2754 8:-1831
+1 1:39 2:32 3:-1252 4:131 5:4000 6:817 7:2037 8:-1387
+1 1:64 2:25 3:-1348 4:144 5:4000 6:571 7:4000 8:-948
+1 1:51 2:59 3:-1227 4:142 5:4000 6:343 7:4000 8:-805
+1 1:36 2:115 3:-1191 4:120 5:4000 6:61 7:4000 8:-732
+1 1:21 2:158 3:-1020 4:53 5:4000 6:-238 7:4000 8:-976
+1 1:-39 2:158 3:-906 4:-49 5:4000 6:-575 7:4000 8:-733
+1 1:-62 2:152 3:-625 4:-153 5:4000 6:-826 7:2698 8:-460
+1 1:-110 2:147 3:-204 4:-163 5:4000 6:-1070 7:-1063 8:-31
+1 1:-79 2:172 3:40 4:-112 5:3851 6:-1135 7:-4000 8:-64
+1 1:-47 2:103 3:368 4:-78 5:2035 6:-1005 7:-4000 8:15
+1 1:-84 2:-46 3:408 4:-28 5:743 6:-812 7:-4000 8:247
+1 1:-26 2:-155 3:596 4:35 5:-1585 6:-659 7:-4000 8:686
+1 1:86 2:-351 3:836 4:-16 5:-3380 6:-489 7:-4000 8:783
+1 1:64 2:-440 3:1090 4:-109 5:-4000 6:-442 7:-4000 8:259
+1 1:81 2:-342 3:1104 4:-171 5:-4000 6:-403 7:-4000 8:-30
+1 1:175 2:-173 3:936 4:-215 5:-4000 6:-375 7:-4000 8:69
+1 1:72 2:-49 3:815 4:-300 5:-4000 6:-393 7:-4000 8:53
+1 1:11 2:1 3:663 4:-466 5:-4000 6:-102 7:-4000 8:-472
+1 1:-13 2:-15 3:596 4:-493 5:-4000 6:183 7:-4000 8:-533
+1 1:-104 2:-43 3:419 4:-383 5:-4000 6:391 7:-4000 8:-401
+1 1:-250 2:-55 3:557 4:-277 5:-4000 6:766 7:-4000 8:72
+1 1:-467 2:-50 3:1387 4:-164 5:-4000 6:1299 7:-4000 8:877
+1 1:-612 2:-23 3:2356 4:-84 5:-4000 6:1970 7:-4000 8:1185
+1 1:-680 2:40 3:2266 4:-37 5:-4000 6:2644 7:-4000 8:1174
+1 1:-570 2:40 3:1348 4:4 5:-4000 6:3399 7:-4000 8:1113
+1 1:-374 2:-19 3:30 4:-11 5:-4000 6:4000 7:-4000 8:817
+1 1:-169 2:-1 3:-1407 4:-8 5:-4000 6:4000 7:-4000 8:361
+1 1:2 2:-59 3:-2277 4:-6 5:-4000 6:4000 7:-2927 8:329
+1 1:60 2:-66 3:-2513 4:-20 5:-4000 6:4000 7:-941 8:279
+1 1:88 2:-35 3:-2139 4:3 5:-4000 6:4000 7:939 8:367
+1 1:94 2:37 3:-1461 4:3 5:-4000 6:4000 7:2423 8:927
+1 1:123 2:113 3:-890 4:0 5:-4000 6:4000 7:3999 8:1403
+1 1:85 2:201 3:-485 4:25 5:-4000 6:4000 7:4000 8:1346
+1 1:60 2:298 3:-242 4:29 5:-4000 6:4000 7:4000 8:1632
+1 1:53 2:328 3:41 4:81 5:-4000 6:4000 7:4000 8:2184
+1 1:36 2:309 3:892 4:96 5:-4000 6:4000 7:4000 8:1834
+1 1:74 2:263 3:2054 4:85 5:-4000 6:4000 7:4000 8:733
+1 1:74 2:244 3:2615 4:85 5:-4000 6:4000 7:4000 8:-658
+1 1:119 2:184 3:1192 4:96 5:-4000 6:4000 7:4000 8:-994
+1 1:211 2:122 3:-217 4:179 5:-4000 6:4000 7:4000 8:330
+1 1:202 2:-30 3:-580 4:174 5:-4000 6:3934 7:4000 8:1698
+1 1:260 2:-171 3:-1414 4:107 5:-4000 6:2698 7:4000 8:2111
+1 1:328 2:-244 3:-1765 4:75 5:-4000 6:1482 7:4000 8:2287
+1 1:371 2:-202 3:-1731 4:88 5:-4000 6:260 7:4000 8:2117
+1 1:277 2:-114 3:-1687 4:63 5:-3327 6:-875 7:4000 8:1829
+1 1:94 2:-89 3:-1461 4:29 5:-1007 6:-1461 7:4000 8:1704
+1 1:136 2:103 3:-1191 4:-14 5:1077 6:-1977 7:4000 8:1635
+1 1:141 2:201 3:-971 4:-38 5:1865 6:-2802 7:4000 8:1696
+1 1:307 2:201 3:-948 4:45 5:2117 6:-3787 7:4000 8:1590
+1 1:591 2:213 3:-743 4:66 5:1981 6:-4000 7:4000 8:1531
+1 1:460 2:97 3:-190 4:56 5:1584 6:-4000 7:2972 8:1496
+1 1:321 2:-20 3:442 4:4 5:1537 6:-4000 7:1141 8:1460
+1 1:122 2:-138 3:1147 4:-12 5:1051 6:-4000 7:-1142 8:1372
+1 1:-284 2:-351 3:1175 4:26 5:-12 6:-4000 7:-3977 8:1091
+1 1:-706 2:-530 3:549 4:30 5:-616 6:-4000 7:-4000 8:921
+1 1:-960 2:-539 3:307 4:12 5:-338 6:-4000 7:-4000 8:686
+1 1:-895 2:-586 3:185 4:-37 5:733 6:-4000 7:-4000 8:434
+1 1:-909 2:-586 3:377 4:-41 5:2237 6:-4000 7:-4000 8:321
+1 1:-936 2:-430 3:697 4:-35 5:3998 6:-4000 7:-4000 8:199
+1 1:-628 2:-215 3:1348 4:-28 5:4000 6:-4000 7:-4000 8:33
+1 1:-421 2:39 3:2326 4:-32 5:4000 6:-4000 7:-4000 8:-109
+1 1:-106 2:160 3:1934 4:-48 5:4000 6:-4000 7:-4000 8:-253
+1 1:425 2:247 3:1216 4:-25 5:4000 6:-4000 7:-4000 8:-479
+1 1:759 2:400 3:1359 4:0 5:4000 6:-4000 7:-4000 8:-673
+1 1:785 2:428 3:1133 4:-29 5:4000 6:-4000 7:-4000 8:-883
+1 1:605 2:461 3:311 4:-64 5:4000 6:-4000 7:-4000 8:-1143
+1 1:396 2:484 3:-697 4:-67 5:4000 6:-4000 7:-4000 8:-1339
+1 1:145 2:465 3:-1491 4:-48 5:4000 6:-4000 7:-4000 8:-1404
+1 1:-146 2:433 3:-2253 4:-29 5:3982 6:-3726 7:-4000 8:-1530
+1 1:-719 2:309 3:-2338 4:8 5:4000 6:-3377 7:-4000 8:-1908
+1 1:-925 2:182 3:-1679 4:95 5:4000 6:-3050 7:-4000 8:-2452
+1 1:-816 2:60 3:-1231 4:85 5:4000 6:-2754 7:-4000 8:-2910
+1 1:-586 2:-70 3:-632 4:69 5:4000 6:-2547 7:-4000 8:-3597
+1 1:-58 2:-181 3:-46 4:69 5:4000 6:-2315 7:-4000 8:-4000
+1 1:334 2:-393 3:-100 4:60 5:4000 6:-2138 7:-4000 8:-4000
+1 1:668 2:-459 3:-527 4:159 5:4000 6:-2025 7:-4000 8:-4000
+1 1:768 2:-273 3:-1101 4:199 5:4000 6:-1949 7:-4000 8:-4000
+1 1:790 2:-181 3:-1553 4:134 5:4000 6:-1814 7:-2862 8:-4000
+1 1:762 2:-163 3:-1191 4:73 5:4000 6:-1701 7:-487 8:-2905
+1 1:591 2:-74 3:-737 4:4 5:4000 6:-1591 7:1931 8:-1524
+1 1:436 2:49 3:-450 4:3 5:4000 6:-1430 7:3999 8:-390
+1 1:172 2:51 3:30 4:-141 5:4000 6:-1265 7:4000 8:74
+1 1:-104 2:95 3:699 4:-511 5:4000 6:-1123 7:4000 8:-99
+1 1:-280 2:136 3:1101 4:-658 5:4000 6:-989 7:4000 8:-55
+1 1:-376 2:97 3:966 4:-511 5:2906 6:-824 7:4000 8:-46
+1 1:-427 2:110 3:1574 4:-210 5:2243 6:-680 7:4000 8:164
+1 1:-461 2:15 3:2278 4:-108 5:1863 6:-529 7:4000 8:544
+1 1:-409 2:-18 3:2160 4:-33 5:1466 6:-334 7:4000 8:939
+1 1:-74 2:28 3:1639 4:18 5:1004 6:-100 7:4000 8:1180
+1 1:489 2:45 3:1096 4:-72 5:558 6:144 7:4000 8:935
+1 1:635 2:10 3:828 4:-57 5:-16 6:367 7:4000 8:766
+1 1:541 2:-69 3:272 4:-37 5:-470 6:628 7:4000 8:414
+1 1:554 2:-122 3:596 4:-78 5:-880 6:941 7:4000 8:308
+1 1:454 2:-130 3:1025 4:-121 5:-1121 6:1180 7:4000 8:341
+1 1:243 2:-102 3:-17 4:-63 5:-1096 6:1313 7:4000 8:393
+1 1:-181 2:-59 3:-629 4:65 5:-925 6:1482 7:4000 8:716
+1 1:-331 2:74 3:-857 4:142 5:-908 6:1604 7:4000 8:733
+1 1:-388 2:99 3:-497 4:52 5:-993 6:1669 7:4000 8:935
+1 1:-606 2:57 3:-213 4:8 5:-877 6:1722 7:4000 8:1199
+1 1:-909 2:108 3:40 4:80 5:-869 6:1789 7:4000 8:1574
+1 1:-1345 2:148 3:663 4:190 5:-903 6:1929 7:4000 8:1915
+1 1:-1255 2:83 3:475 4:146 5:-934 6:1993 7:4000 8:1924
+1 1:-917 2:115 3:207 4:105 5:-934 6:2047 7:2777 8:1915
+1 1:-350 2:158 3:-389 4:65 5:-879 6:2019 7:1280 8:1830
+1 1:212 2:147 3:-694 4:-125 5:-1072 6:1929 7:376 8:1859
+1 1:408 2:42 3:-620 4:-47 5:-1446 6:1895 7:-672 8:1781
+1 1:648 2:-114 3:-709 4:50 5:-1642 6:1799 7:-2486 8:1307
+1 1:668 2:-166 3:-1264 4:64 5:-1758 6:1864 7:-4000 8:203
+1 1:725 2:-183 3:-1427 4:46 5:-1945 6:1915 7:-4000 8:-1078
+1 1:577 2:-81 3:-906 4:97 5:-1784 6:1864 7:-4000 8:-1860
+1 1:485 2:-120 3:-709 4:92 5:-1843 6:1862 7:-3603 8:-2022
+1 1:487 2:-120 3:179 4:46 5:-2240 6:1838 7:-3965 8:-1827
+1 1:281 2:-3 3:2095 4:59 5:-2340 6:1862 7:-4000 8:-1503
+1 1:443 2:16 3:2864 4:-59 5:-2010 6:1799 7:-4000 8:-1143
+1 1:412 2:5 3:1249 4:-84 5:-1357 6:1721 7:-4000 8:-1131
+1 1:603 2:-22 3:635 4:-123 5:-648 6:1641 7:-4000 8:-1065
+1 1:465 2:-5 3:-269 4:-34 5:-81 6:1539 7:-4000 8:-886
+1 1:-42 2:-89 3:-2253 4:233 5:-227 6:1515 7:-4000 8:-622
+1 1:55 2:-171 3:-2737 4:288 5:-957 6:1417 7:-4000 8:-232
+1 1:-95 2:-259 3:-2957 4:181 5:-2277 6:1344 7:4000 8:276
+1 1:-25 2:-284 3:-2538 4:130 5:-3925 6:1313 7:4000 8:970
+1 1:-77 2:-208 3:-2204 4:29 5:-4000 6:1279 7:4000 8:1561
+1 1:-83 2:-126 3:-1659 4:44 5:-4000 6:1254 7:4000 8:1989
+1 1:2 2:-13 3:-71 4:53 5:-4000 6:1191 7:4000 8:2348
+1 1:-742 2:-23 3:1249 4:-47 5:-4000 6:1242 7:4000 8:2575
+1 1:-1045 2:19 3:1674 4:-34 5:-4000 6:1319 7:4000 8:2753
+1 1:-966 2:152 3:1422 4:-9 5:-4000 6:1380 7:4000 8:2934
+1 1:-1019 2:254 3:1103 4:3 5:-2084 6:1398 7:4000 8:2941
+1 1:-1039 2:254 3:431 4:-84 5:1091 6:1279 7:4000 8:3144
+1 1:-1105 2:112 3:99 4:11 5:4000 6:1148 7:1760 8:3458
+1 1:-865 2:11 3:-324 4:34 5:4000 6:884 7:-4000 8:3540
+1 1:-109 2:103 3:-68 4:-48 5:4000 6:636 7:-4000 8:3534
+1 1:619 2:78 3:480 4:-36 5:4000 6:347 7:-4000 8:3666
+1 1:896 2:98 3:445 4:6 5:4000 6:-10 7:-4000 8:4000
+1 1:1029 2:253 3:728 4:146 5:4000 6:-125 7:-506 8:3991
+1 1:880 2:282 3:490 4:223 5:4000 6:-89 7:3494 8:3682
+1 1:507 2:300 3:306 4:261 5:4000 6:4 7:4000 8:3393
+1 1:351 2:233 3:170 4:150 5:4000 6:170 7:4000 8:3014
+1 1:187 2:167 3:84 4:63 5:4000 6:453 7:4000 8:2795
+1 1:-301 2:44 3:89 4:-53 5:1638 6:817 7:4000 8:2498
+1 1:-433 2:-30 3:28 4:-39 5:2842 6:1148 7:1639 8:2351
+1 1:-412 2:-23 3:854 4:167 5:4000 6:1328 7:-4000 8:2054
+1 1:-461 2:-86 3:1114 4:-121 5:4000 6:1148 7:-4000 8:1818
+1 1:-504 2:-150 3:699 4:-540 5:-2188 6:758 7:-4000 8:1592
+1 1:-598 2:-142 3:451 4:-761 5:-4000 6:231 7:-1291 8:1346
+1 1:-632 2:-105 3:5 4:-837 5:-4000 6:-423 7:4000 8:1240
+1 1:-554 2:-161 3:-377 4:-719 5:-4000 6:-1109 7:4000 8:1012
+1 1:-333 2:-114 3:-694 4:-532 5:4000 6:-1811 7:4000 8:751
+1 1:-185 2:-72 3:-782 4:-319 5:4000 6:-2386 7:4000 8:294
+1 1:22 2:-38 3:-563 4:-300 5:4000 6:-2872 7:4000 8:-427
+1 1:139 2:-8 3:-217 4:-173 5:4000 6:-3262 7:4000 8:-832
+1 1:328 2:-16 3:-74 4:-2 5:2645 6:-3530 7:4000 8:-809
+1 1:328 2:-7 3:-221 4:-75 5:4000 6:-3649 7:4000 8:-472
+1 1:176 2:-62 3:-202 4:-16 5:4000 6:-3514 7:4000 8:-190
+1 1:259 2:-53 3:-182 4:30 5:4000 6:-3263 7:4000 8:-358
+1 1:209 2:-23 3:-171 4:154 5:4000 6:-2819 7:-4000 8:-404
+1 1:277 2:-16 3:-143 4:170 5:4000 6:-2287 7:-4000 8:-415
+1 1:342 2:-60 3:-49 4:134 5:4000 6:-1727 7:-4000 8:-491
+1 1:322 2:-50 3:-28 4:142 5:4000 6:-1199 7:-4000 8:-465
+1 1:298 2:-32 3:-119 4:-34 5:4000 6:-613 7:-4000 8:-455
+1 1:212 2:-68 3:110 4:41 5:4000 6:48 7:-4000 8:-327
+1 1:179 2:-91 3:162 4:130 5:2842 6:571 7:-4000 8:-396
+1 1:70 2:-117 3:189 4:108 5:-1617 6:1157 7:-4000 8:-519
+1 1:-14 2:-117 3:246 4:105 5:-1459 6:1864 7:-4000 8:-553
+1 1:-51 2:-153 3:178 4:118 5:-4000 6:2631 7:-4000 8:-619
+1 1:-42 2:-168 3:250 4:124 5:-4000 6:3032 7:-4000 8:-606
+1 1:7 2:-151 3:315 4:144 5:-4000 6:2904 7:-4000 8:-614
+1 1:16 2:-102 3:317 4:63 5:-4000 6:2442 7:-4000 8:-573
+1 1:17 2:-60 3:318 4:-30 5:-4000 6:1722 7:-4000 8:-583
+1 1:180 2:-6 3:312 4:-24 5:-4000 6:701 7:-4000 8:-666
+1 1:379 2:66 3:229 4:-107 5:-4000 6:-419 7:-4000 8:-753
+1 1:570 2:106 3:197 4:-59 5:-4000 6:-1509 7:-4000 8:-832
+1 1:762 2:237 3:93 4:31 5:-4000 6:-2635 7:-4000 8:-934
+1 1:695 2:280 3:39 4:95 5:-4000 6:-3730 7:-4000 8:-1078
+1 1:591 2:261 3:46 4:142 5:-4000 6:-4000 7:-4000 8:-1204
+1 1:494 2:241 3:27 4:150 5:-4000 6:-4000 7:-4000 8:-1363
+1 1:304 2:150 3:1 4:283 5:-4000 6:-4000 7:-4000 8:-1624
+1 1:123 2:99 3:-6 4:225 5:-4000 6:-4000 7:-4000 8:-1892
+1 1:-52 2:63 3:-38 4:57 5:-4000 6:-4000 7:-4000 8:-2068
+1 1:-136 2:108 3:-33 4:36 5:-4000 6:-4000 7:-2097 8:-2175
+1 1:-218 2:119 3:-42 4:-28 5:-4000 6:-4000 7:628 8:-2254
+1 1:-343 2:109 3:-78 4:-84 5:-4000 6:-4000 7:2444 8:-2319
+1 1:-360 2:168 3:-65 4:-69 5:-4000 6:-4000 7:4000 8:-2428
+1 1:-262 2:159 3:-190 4:-90 5:-4000 6:-4000 7:4000 8:-2515
+1 1:-200 2:168 3:-198 4:-76 5:-4000 6:-4000 7:4000 8:-2644
+1 1:-236 2:212 3:-165 4:56 5:-4000 6:-4000 7:4000 8:-2683
+1 1:-258 2:225 3:-218 4:233 5:-4000 6:-4000 7:4000 8:-2509
+1 1:-262 2:233 3:-197 4:341 5:-4000 6:-4000 7:4000 8:-2429
+1 1:-233 2:217 3:-133 4:325 5:-4000 6:-4000 7:4000 8:-2254
+1 1:-217 2:135 3:-26 4:199 5:-4000 6:-4000 7:4000 8:-1809
+1 1:-236 2:58 3:34 4:-22 5:-4000 6:-4000 7:4000 8:-1143
+1 1:-180 2:16 3:-3 4:-261 5:-4000 6:-4000 7:4000 8:-419
+1 1:-44 2:4 3:-100 4:-175 5:-4000 6:-1461 7:4000 8:276
+1 1:66 2:40 3:-128 4:45 5:-4000 6:1774 7:4000 8:947
+1 1:-7 2:57 3:-4 4:234 5:-4000 6:4000 7:4000 8:1533
+1 1:-49 2:30 3:134 4:476 5:-4000 6:4000 7:4000 8:1989
+1 1:-117 2:7 3:109 4:506 5:-4000 6:4000 7:4000 8:2313
+1 1:-185 2:-34 3:41 4:299 5:-4000 6:4000 7:4000 8:2510
+1 1:-163 2:-112 3:-40 4:141 5:-4000 6:4000 7:4000 8:2348
+1 1:-226 2:-155 3:-48 4:-50 5:-4000 6:4000 7:4000 8:2111
+1 1:-125 2:-129 3:3 4:-236 5:-4000 6:4000 7:4000 8:1989
+1 1:-36 2:-139 3:-34 4:-226 5:-4000 6:4000 7:4000 8:1765
+1 1:-2 2:-134 3:-11 4:-303 5:-4000 6:4000 7:4000 8:1598
+1 1:27 2:-60 3:-51 4:-363 5:-4000 6:4000 7:4000 8:1533
+1 1:8 2:1 3:-48 4:-64 5:-3131 6:4000 7:4000 8:1509
+1 1:-23 2:13 3:104 4:246 5:64 6:4000 7:4000 8:1533
+1 1:-39 2:22 3:152 4:276 5:2255 6:4000 7:3294 8:1632
+1 1:-52 2:-21 3:46 4:207 5:2752 6:4000 7:1019 8:1698
+1 1:-77 2:-17 3:-15 4:179 5:4000 6:4000 7:-1051 8:1728
+1 1:14 2:-16 3:-15 4:209 5:4000 6:4000 7:-2630 8:1768
+1 1:86 2:-79 3:-76 4:191 5:4000 6:4000 7:-4000 8:1715
+1 1:102 2:-44 3:-84 4:162 5:4000 6:4000 7:-4000 8:1566
+1 1:119 2:-15 3:-68 4:102 5:4000 6:4000 7:-4000 8:1372
+1 1:146 2:-21 3:-102 4:50 5:4000 6:4000 7:-4000 8:1205
+1 1:159 2:33 3:-78 4:-15 5:4000 6:4000 7:-4000 8:1026
+1 1:90 2:83 3:-41 4:-120 5:4000 6:4000 7:-4000 8:841
+1 1:117 2:67 3:-72 4:-153 5:4000 6:4000 7:-4000 8:586
+1 1:212 2:28 3:-47 4:-157 5:4000 6:4000 7:-4000 8:302
+1 1:154 2:-11 3:-37 4:-116 5:4000 6:4000 7:-4000 8:-22
+1 1:73 2:-27 3:-18 4:-148 5:4000 6:4000 7:-4000 8:-297
+1 1:-3 2:-37 3:-26 4:-76 5:4000 6:4000 7:-4000 8:-592
+1 1:-83 2:-39 3:-63 4:-1 5:4000 6:4000 7:-4000 8:-946
+1 1:-4 2:-31 3:-60 4:-23 5:4000 6:4000 7:-4000 8:-1143
+1 1:310 2:-45 3:-62 4:-14 5:4000 6:4000 7:-1318 8:-1179
+1 1:540 2:-56 3:-65 4:-92 5:4000 6:3292 7:4000 8:-1143
+1 1:296 2:-58 3:-54 4:-131 5:4000 6:1982 7:4000 8:-1192
+1 1:77 2:-40 3:-29 4:-179 5:4000 6:707 7:4000 8:-1254
+1 1:-13 2:-42 3:-45 4:-289 5:4000 6:-546 7:4000 8:-1274
+1 1:-163 2:-14 3:-44 4:-350 5:4000 6:-1522 7:4000 8:-1204
+1 1:-298 2:-19 3:-15 4:-366 5:4000 6:-2239 7:4000 8:-1204
+1 1:-437 2:-24 3:14 4:-221 5:4000 6:-3169 7:4000 8:-1120
+1 1:-417 2:57 3:46 4:-100 5:4000 6:-4000 7:4000 8:-983
+1 1:-297 2:69 3:45 4:-131 5:4000 6:-4000 7:4000 8:-953
+1 1:-122 2:25 3:31 4:-71 5:4000 6:-4000 7:4000 8:-858
+1 1:-23 2:6 3:47 4:-15 5:4000 6:-4000 7:4000 8:-793
+1 1:-11 2:-16 3:46 4:45 5:4000 6:-4000 7:4000 8:-716
+1 1:138 2:25 3:20 4:89 5:4000 6:-4000 7:4000 8:-645
+1 1:134 2:49 3:40 4:133 5:4000 6:-4000 7:4000 8:-541
+1 1:104 2:48 3:31 4:193 5:4000 6:-4000 7:4000 8:-311
+1 1:62 2:69 3:-25 4:69 5:4000 6:-4000 7:4000 8:-69
+1 1:-64 2:65 3:-55 4:-63 5:-1198 6:-4000 7:4000 8:149
+1 1:-50 2:73 3:-67 4:-179 5:-4000 6:-4000 7:4000 8:285
+1 1:-174 2:14 3:-2 4:-255 5:-4000 6:-4000 7:4000 8:400
+1 1:-392 2:-56 3:6 4:-275 5:-4000 6:-4000 7:4000 8:491
+1 1:-649 2:-118 3:-61 4:-387 5:-4000 6:-4000 7:4000 8:581
+1 1:-665 2:-146 3:-64 4:-435 5:-4000 6:-4000 7:4000 8:629
+1 1:-652 2:-148 3:-60 4:-307 5:-4000 6:-4000 7:4000 8:609
+1 1:-628 2:-145 3:-50 4:-215 5:-4000 6:-4000 7:-90 8:535
+1 1:-360 2:-56 3:-45 4:-284 5:-4000 6:-4000 7:-4000 8:434
+1 1:-361 2:-63 3:-71 4:-324 5:-4000 6:-4000 7:-4000 8:290
+1 1:-286 2:-97 3:-107 4:-348 5:-4000 6:-3323 7:-4000 8:165
+1 1:-79 2:-73 3:-149 4:-316 5:-4000 6:-2725 7:-4000 8:51
+1 1:9 2:-85 3:-131 4:-218 5:-4000 6:-2543 7:-4000 8:-138
+1 1:161 2:-97 3:-72 4:-113 5:-4000 6:-2420 7:-4000 8:-311
+1 1:428 2:-88 3:-51 4:28 5:-4000 6:-2895 7:-4000 8:-472
+1 1:674 2:-76 3:-36 4:136 5:-4000 6:-3968 7:-4000 8:-620
+1 1:640 2:-91 3:2 4:195 5:-4000 6:-3848 7:-4000 8:-645
+1 1:668 2:-73 3:35 4:314 5:-4000 6:-3453 7:-4000 8:-686
+1 1:603 2:-81 3:89 4:431 5:-4000 6:-3377 7:-4000 8:-664
+1 1:399 2:-47 3:149 4:431 5:-4000 6:-2895 7:-4000 8:-593
+1 1:540 2:-10 3:116 4:209 5:-4000 6:-2400 7:-4000 8:-559
+1 1:1181 2:-33 3:59 4:37 5:-4000 6:-1633 7:-4000 8:-458
+1 1:1319 2:-6 3:40 4:60 5:-4000 6:-1355 7:-4000 8:-409
+1 1:553 2:21 3:14 4:-9 5:-4000 6:-1160 7:-4000 8:-270
+1 1:204 2:23 3:-77 4:12 5:-4000 6:-891 7:-4000 8:-260
+1 1:120 2:-7 3:-118 4:-72 5:-4000 6:-940 7:-4000 8:-146
+1 1:-31 2:-16 3:-87 4:-135 5:-4000 6:-962 7:-4000 8:140
+1 1:-521 2:14 3:-52 4:-96 5:-4000 6:-1115 7:-4000 8:269
+1 1:-901 2:32 3:-45 4:-137 5:-3267 6:-1196 7:-4000 8:352
+1 1:-1170 2:13 3:13 4:-21 5:-1525 6:-982 7:-4000 8:185
+1 1:-1230 2:-30 3:-7 4:187 5:1603 6:-770 7:-4000 8:-251
+1 1:-692 2:46 3:-46 4:264 5:4000 6:-767 7:-4000 8:-990
+1 1:-584 2:109 3:-5 4:197 5:4000 6:-221 7:-4000 8:-1257
+1 1:-807 2:-23 3:-13 4:121 5:4000 6:123 7:-4000 8:-875
+1 1:-885 2:-35 3:4 4:36 5:4000 6:135 7:-2729 8:-492
+1 1:-474 2:36 3:17 4:-47 5:4000 6:540 7:124 8:-139
+1 1:-197 2:85 3:50 4:-108 5:-4000 6:801 7:2375 8:75
+1 1:-86 2:147 3:82 4:-92 5:-4000 6:1506 7:4000 8:304
+1 1:86 2:114 3:18 4:-51 5:-4000 6:2319 7:4000 8:586
+1 1:220 2:94 3:-5 4:-66 5:-4000 6:2840 7:4000 8:760
+1 1:358 2:72 3:31 4:-81 5:2293 6:3617 7:4000 8:794
+1 1:485 2:32 3:30 4:35 5:4000 6:4000 7:4000 8:782
+1 1:751 2:-23 3:19 4:182 5:4000 6:4000 7:4000 8:731
+1 1:973 2:-102 3:42 4:156 5:4000 6:4000 7:4000 8:621
+1 1:967 2:-143 3:-9 4:60 5:4000 6:4000 7:3559 8:491
+1 1:798 2:-126 3:-20 4:-67 5:4000 6:1604 7:-1547 8:361
+1 1:756 2:-27 3:12 4:-116 5:4000 6:-1457 7:-4000 8:195
+1 1:328 2:36 3:40 4:81 5:4000 6:-2054 7:-4000 8:79
+1 1:52 2:89 3:79 4:272 5:4000 6:-731 7:-4000 8:73
+1 1:-74 2:160 3:24 4:260 5:4000 6:331 7:-4000 8:126
+1 1:-278 2:121 3:23 4:229 5:4000 6:-255 7:-4000 8:164
+1 1:-518 2:45 3:9 4:130 5:4000 6:-224 7:-4000 8:58
+1 1:-749 2:9 3:-11 4:5 5:4000 6:273 7:-4000 8:-124
+1 1:-651 2:18 3:24 4:-120 5:4000 6:-612 7:-4000 8:-218
+1 1:-690 2:19 3:8 4:-318 5:4000 6:-2775 7:-4000 8:-327
+1 1:-498 2:-12 3:-9 4:-397 5:4000 6:-4000 7:-4000 8:-382
+1 1:-193 2:11 3:-50 4:-397 5:4000 6:-4000 7:-3977 8:-425
+1 1:-130 2:12 3:-33 4:-361 5:4000 6:-4000 7:-2467 8:-506
+1 1:-159 2:11 3:-13 4:-387 5:-1658 6:-4000 7:-1842 8:-565
+1 1:-104 2:9 3:2 4:-279 5:-4000 6:-4000 7:-1136 8:-696
+1 1:3 2:-14 3:-10 4:-164 5:-4000 6:-4000 7:-832 8:-820
+1 1:-25 2:16 3:-71 4:-74 5:-4000 6:-4000 7:-562 8:-990
+1 1:7 2:-18 3:-51 4:69 5:-4000 6:-4000 7:-451 8:-1135
+1 1:94 2:-7 3:-43 4:46 5:-4000 6:-4000 7:-917 8:-1263
+1 1:21 2:4 3:-21 4:102 5:-4000 6:-4000 7:-1641 8:-1339
+1 1:11 2:-23 3:-23 4:131 5:-4000 6:-4000 7:-2146 8:-1374
+1 1:27 2:-23 3:-53 4:104 5:-4000 6:-3649 7:-2028 8:-1339
+1 1:-31 2:-53 3:-32 4:33 5:-4000 6:-1959 7:-1570 8:-1257
+1 1:-125 2:-23 3:-22 4:46 5:-4000 6:311 7:-1063 8:-1168
+1 1:-152 2:-22 3:-19 4:81 5:3554 6:1994 7:-472 8:-1018
+1 1:-19 2:-7 3:-27 4:60 5:4000 6:3807 7:243 8:-915
+1 1:11 2:-8 3:-1 4:33 5:4000 6:4000 7:1605 8:-753
+1 1:55 2:-24 3:11 4:-39 5:4000 6:4000 7:2823 8:-687
+1 1:120 2:17 3:34 4:12 5:4000 6:4000 7:2843 8:-778
+1 1:139 2:-19 3:55 4:85 5:4000 6:4000 7:2961 8:-722
+1 1:171 2:-17 3:35 4:131 5:4000 6:4000 7:3528 8:-588
+1 1:188 2:-11 3:14 4:108 5:4000 6:4000 7:3810 8:-370
+1 1:190 2:-7 3:-57 4:12 5:4000 6:4000 7:4000 8:-147
+1 1:184 2:38 3:-46 4:5 5:4000 6:4000 7:4000 8:-89
+1 1:195 2:66 3:-6 4:264 5:1466 6:4000 7:4000 8:65
+1 1:154 2:55 3:45 4:598 5:-119 6:4000 7:4000 8:275
+1 1:149 2:27 3:122 4:769 5:-803 6:4000 7:4000 8:241
+1 1:135 2:48 3:88 4:741 5:-1489 6:4000 7:4000 8:112
+1 1:72 2:56 3:12 4:425 5:-2509 6:4000 7:4000 8:117
+1 1:74 2:41 3:-47 4:194 5:-3864 6:4000 7:4000 8:247
+1 1:53 2:37 3:-28 4:-67 5:-4000 6:4000 7:4000 8:462
+1 1:27 2:62 3:-15 4:-576 5:-4000 6:4000 7:4000 8:540
+1 1:0 2:40 3:-29 4:-1080 5:-4000 6:4000 7:4000 8:621
+1 1:20 2:-4 3:8 4:-1282 5:-4000 6:4000 7:4000 8:922
+1 1:37 2:-20 3:48 4:-1008 5:-4000 6:4000 7:4000 8:1077
+1 1:166 2:0 3:131 4:-610 5:-4000 6:4000 7:3810 8:1056
+1 1:250 2:-24 3:93 4:-255 5:-4000 6:4000 7:3286 8:825
+1 1:358 2:-34 3:41 4:-24 5:-3065 6:286 7:2358 8:581
+1 1:574 2:-26 3:35 4:-59 5:-2468 6:-3323 7:1982 8:396
+1 1:701 2:-6 3:-45 4:-55 5:-2248 6:-2626 7:2427 8:74
+1 1:838 2:-4 3:-90 4:-90 5:-2029 6:433 7:2823 8:21
+1 1:383 2:-56 3:-78 4:-164 5:-1767 6:1864 7:2883 8:361
+1 1:-30 2:-80 3:-78 4:-146 5:-1137 6:1964 7:2908 8:360
+1 1:-292 2:-75 3:-118 4:-113 5:-197 6:2188 7:3475 8:322
+1 1:-785 2:-39 3:-103 4:126 5:823 6:2360 7:2972 8:377
+1 1:-936 2:-26 3:-70 4:156 5:1900 6:2239 7:2423 8:54
+1 1:-954 2:-38 3:-12 4:81 5:2906 6:1539 7:3151 8:-209
+1 1:-885 2:-25 3:62 4:62 5:3838 6:1026 7:4000 8:-504
+1 1:-846 2:9 3:93 4:-41 5:4000 6:1144 7:4000 8:-928
+1 1:-766 2:18 3:3 4:-92 5:4000 6:472 7:4000 8:-1042
+1 1:-713 2:66 3:54 4:-123 5:4000 6:-351 7:4000 8:-885
+1 1:-700 2:130 3:132 4:-90 5:3851 6:-1221 7:4000 8:-1013
+1 1:-474 2:119 3:27 4:-4 5:3141 6:-2095 7:1705 8:-766
+1 1:-161 2:95 3:-24 4:92 5:2507 6:-2788 7:-255 8:-270
+1 1:15 2:65 3:-11 4:167 5:1901 6:-3504 7:-786 8:27
+1 1:81 2:48 3:24 4:174 5:1026 6:-4000 7:-443 8:279
+1 1:296 2:12 3:27 4:146 5:46 6:-4000 7:-524 8:377
+1 1:487 2:3 3:29 4:128 5:-681 6:-4000 7:-865 8:423
+1 1:652 2:-11 3:-25 4:129 5:-1263 6:-4000 7:-811 8:352
+1 1:1159 2:-72 3:-57 4:108 5:-1963 6:-4000 7:146 8:434
+1 1:1474 2:-70 3:-38 4:133 5:-3054 6:-4000 7:1446 8:538
+1 1:1222 2:-77 3:-55 4:162 5:-4000 6:-4000 7:3038 8:671
+1 1:674 2:-88 3:-43 4:136 5:-4000 6:-4000 7:4000 8:760
+1 1:155 2:-51 3:-40 4:156 5:-4000 6:-4000 7:4000 8:874
+1 1:-145 2:-44 3:-33 4:156 5:-4000 6:-4000 7:4000 8:976
+1 1:-553 2:-14 3:-18 4:156 5:-4000 6:-4000 7:4000 8:1012
+1 1:-873 2:-13 3:158 4:171 5:-4000 6:-4000 7:4000 8:1185
+1 1:-1011 2:-44 3:727 4:169 5:-4000 6:-3854 7:4000 8:1307
+1 1:-966 2:-24 3:1283 4:142 5:-4000 6:-3340 7:4000 8:1411
+1 1:-901 2:-4 3:1375 4:140 5:-4000 6:-2900 7:4000 8:1468
+1 1:-974 2:52 3:801 4:134 5:-4000 6:-2703 7:4000 8:1531
+1 1:-925 2:87 3:-132 4:118 5:-4000 6:-2246 7:4000 8:1663
+1 1:-649 2:91 3:-682 4:121 5:-4000 6:-1788 7:4000 8:1859
+1 1:-407 2:65 3:-1010 4:111 5:-4000 6:-1521 7:4000 8:2110
+1 1:-215 2:101 3:-1051 4:105 5:-4000 6:-1184 7:4000 8:2249
+1 1:74 2:144 3:-922 4:88 5:-4000 6:-966 7:4000 8:2284
+1 1:214 2:124 3:-776 4:75 5:-4000 6:-907 7:4000 8:1988
+1 1:361 2:84 3:-648 4:60 5:-4000 6:-938 7:4000 8:1533
+1 1:389 2:11 3:-662 4:45 5:-4000 6:-900 7:4000 8:1174
+1 1:399 2:-31 3:-672 4:15 5:-4000 6:-839 7:4000 8:377
+1 1:408 2:-40 3:-668 4:69 5:-4000 6:-680 7:4000 8:-297
+1 1:346 2:-64 3:-463 4:92 5:-4000 6:-421 7:4000 8:-253
+1 1:334 2:-71 3:-139 4:88 5:-4000 6:-108 7:4000 8:-240
+1 1:257 2:-66 3:18 4:142 5:-4000 6:-106 7:4000 8:-3
+1 1:212 2:-55 3:-155 4:132 5:-4000 6:-732 7:4000 8:695
+1 1:176 2:5 3:-102 4:81 5:-4000 6:-1290 7:3754 8:1533
+1 1:151 2:-29 3:16 4:-19 5:-4000 6:-1916 7:3086 8:2184
+1 1:147 2:-60 3:64 4:-126 5:-4000 6:-2467 7:2700 8:2249
+1 1:89 2:-28 3:280 4:-239 5:-4000 6:-1755 7:2429 8:1924
+1 1:35 2:-9 3:295 4:-267 5:-4000 6:-1200 7:1983 8:1476
+1 1:90 2:38 3:561 4:-239 5:-4000 6:-2037 7:872 8:785
+1 1:137 2:39 3:663 4:-217 5:-2967 6:-2311 7:-786 8:-122
+1 1:149 2:24 3:642 4:-123 5:-1849 6:-1642 7:-2125 8:-708
+1 1:144 2:-14 3:958 4:8 5:-1462 6:-1526 7:-3193 8:-805
+1 1:-25 2:-36 3:1062 4:115 5:-1945 6:-1591 7:-3455 8:-1143
+1 1:-311 2:-20 3:947 4:33 5:-2484 6:-1489 7:-2549 8:-1192
+1 1:-612 2:-44 3:506 4:-42 5:-3107 6:-1420 7:-993 8:-468
+1 1:-685 2:-42 3:218 4:-98 5:-3855 6:-1355 7:341 8:-101
+1 1:-681 2:-20 3:467 4:-180 5:-4000 6:-1444 7:832 8:-404
+1 1:-521 2:-36 3:541 4:-175 5:-3978 6:-1373 7:573 8:-919
+1 1:-99 2:-73 3:-133 4:-210 5:-4000 6:-1184 7:-159 8:-1048
+1 1:334 2:-95 3:-285 4:-232 5:-4000 6:-877 7:-1006 8:-1270
+1 1:863 2:-100 3:758 4:-149 5:-4000 6:-680 7:-1781 8:-1503
+1 1:1346 2:-72 3:490 4:-114 5:-4000 6:-497 7:-2568 8:-1660
+1 1:1897 2:18 3:-932 4:-121 5:-4000 6:-315 7:-3265 8:-1922
+1 1:2014 2:72 3:-1488 4:-57 5:-4000 6:-204 7:-3322 8:-2295
+1 1:1507 2:55 3:-1589 4:-44 5:-4000 6:10 7:-3040 8:-2893
+1 1:827 2:29 3:-1451 4:-76 5:-4000 6:195 7:-2402 8:-3462
+1 1:431 2:12 3:-1144 4:-121 5:-4000 6:433 7:-1830 8:-3846
+1 1:21 2:29 3:-697 4:-144 5:-4000 6:596 7:-2133 8:-3978
+1 1:-461 2:12 3:-71 4:-116 5:-4000 6:664 7:-2790 8:-4000
+1 1:-139 2:41 3:150 4:-13 5:-3899 6:669 7:-3184 8:-4000
+1 1:147 2:19 3:150 4:100 5:-1729 6:571 7:-3637 8:-4000
+1 1:-455 2:-65 3:69 4:194 5:310 6:441 7:-4000 8:-4000
+1 1:-1170 2:-103 3:-131 4:191 5:1006 6:355 7:-4000 8:-4000
+1 1:-1345 2:-98 3:158 4:64 5:497 6:283 7:-4000 8:-4000
+1 1:-1544 2:49 3:540 4:23 5:570 6:299 7:-4000 8:-4000
+1 1:-1550 2:132 3:1127 4:-74 5:493 6:419 7:-4000 8:-4000
+1 1:-1194 2:199 3:2133 4:-85 5:487 6:433 7:-3342 8:-4000
+1 1:-571 2:282 3:2129 4:27 5:448 6:345 7:-2754 8:-4000
+1 1:74 2:316 3:2027 4:42 5:247 6:141 7:-2302 8:-4000
+1 1:301 2:298 3:1350 4:27 5:871 6:-43 7:-1842 8:-4000
+1 1:363 2:244 3:-77 4:8 5:1669 6:-163 7:-2055 8:-4000
+1 1:285 2:205 3:-1020 4:-54 5:1863 6:-320 7:-2756 8:-4000
+1 1:8 2:-12 3:-1824 4:-113 5:667 6:-419 7:-3914 8:-4000
+1 1:-116 2:-117 3:-1622 4:-121 5:-1849 6:-499 7:-4000 8:-3724
+1 1:-14 2:-66 3:-1520 4:-218 5:-4000 6:-548 7:-4000 8:-3333
+1 1:-122 2:-80 3:-1687 4:-196 5:-4000 6:-558 7:-4000 8:-2901
+1 1:-298 2:-163 3:-1796 4:-34 5:-4000 6:-584 7:-4000 8:-2466
+1 1:-323 2:-357 3:-1451 4:24 5:-4000 6:-541 7:-4000 8:-1917
+1 1:-180 2:-454 3:-711 4:35 5:667 6:-344 7:-4000 8:-1124
+1 1:-162 2:-314 3:-140 4:14 5:4000 6:56 7:-4000 8:-30
+1 1:14 2:-233 3:1672 4:104 5:4000 6:494 7:-4000 8:1125
+1 1:416 2:-283 3:3263 4:221 5:4000 6:953 7:-4000 8:2184
+1 1:994 2:-257 3:1770 4:178 5:4000 6:1604 7:-4000 8:3198
+1 1:1572 2:-134 3:136 4:142 5:4000 6:2243 7:-4000 8:4000
+1 1:1701 2:-30 3:-1078 4:90 5:4000 6:2645 7:-4000 8:4000
+1 1:1631 2:-43 3:-2452 4:-43 5:4000 6:2958 7:-4000 8:4000
+1 1:1281 2:-59 3:-2670 4:-260 5:4000 6:2904 7:-3965 8:4000
+1 1:473 2:63 3:-2904 4:-478 5:4000 6:2450 7:-3572 8:4000
+1 1:-365 2:199 3:-2109 4:-455 5:4000 6:2308 7:-3407 8:4000
+1 1:-1091 2:262 3:-932 4:-356 5:4000 6:2165 7:-3377 8:4000
+1 1:-1622 2:254 3:-228 4:-79 5:4000 6:1645 7:-3407 8:4000
+1 1:-1296 2:196 3:511 4:132 5:4000 6:1148 7:-3432 8:4000
+1 1:-820 2:159 3:1387 4:261 5:4000 6:754 7:-2954 8:4000
+1 1:-1170 2:87 3:2927 4:304 5:4000 6:441 7:-2075 8:4000
+1 1:-1479 2:109 3:4000 4:129 5:4000 6:246 7:-1057 8:4000
+1 1:-1528 2:183 3:4000 4:-10 5:4000 6:138 7:172 8:4000
+1 1:-1790 2:75 3:2551 4:46 5:4000 6:-71 7:1381 8:4000
+1 1:-1650 2:-8 3:1965 4:142 5:4000 6:-331 7:2102 8:4000
+1 1:-1150 2:8 3:742 4:69 5:4000 6:-460 7:2183 8:4000
+1 1:-685 2:0 3:-503 4:73 5:4000 6:-745 7:1866 8:4000
+1 1:113 2:-64 3:-56 4:141 5:4000 6:-1184 7:1516 8:4000
+1 1:668 2:-114 3:312 4:199 5:4000 6:-1588 7:1158 8:4000
+1 1:781 2:-103 3:-951 4:43 5:4000 6:-1766 7:1019 8:4000
+1 1:920 2:-32 3:-1535 4:-79 5:4000 6:-1615 7:1139 8:3784
+1 1:900 2:-30 3:-1554 4:-195 5:4000 6:-1487 7:1314 8:3261
+1 1:994 2:11 3:-1992 4:-455 5:4000 6:-1261 7:1345 8:2753
+1 1:1116 2:186 3:-2643 4:-490 5:4000 6:-1135 7:1310 8:2182
+1 1:929 2:207 3:-3276 4:-458 5:4000 6:-1265 7:1605 8:1574
+1 1:929 2:127 3:-2383 4:-304 5:4000 6:-1633 7:2896 8:876
+1 1:886 2:66 3:-1268 4:-66 5:4000 6:-2113 7:4000 8:91
+1 1:863 2:82 3:-337 4:-38 5:4000 6:-2571 7:4000 8:-622
+1 1:974 2:74 3:-365 4:31 5:4000 6:-2965 7:4000 8:-1465
+1 1:1222 2:9 3:-693 4:118 5:479 6:-3116 7:4000 8:-2248
+1 1:2287 2:-64 3:-428 4:129 5:-4000 6:-2925 7:4000 8:-2869
+1 1:3175 2:-151 3:585 4:178 5:-4000 6:-2481 7:4000 8:-3387
+1 1:2471 2:-200 3:1574 4:285 5:-4000 6:-1686 7:4000 8:-3695
+1 1:1087 2:-213 3:1314 4:282 5:-4000 6:-667 7:4000 8:-3864
+1 1:-46 2:-144 3:801 4:218 5:-4000 6:428 7:4000 8:-3984
+1 1:-1324 2:-17 3:525 4:150 5:-4000 6:1840 7:4000 8:-4000
+1 1:-2387 2:113 3:463 4:-53 5:-4000 6:3231 7:4000 8:-4000
+1 1:-3205 2:124 3:318 4:-189 5:-4000 6:4000 7:4000 8:-3935
+1 1:-2896 2:168 3:171 4:-225 5:-4000 6:4000 7:4000 8:-3858
+1 1:-1762 2:371 3:317 4:-275 5:-4000 6:4000 7:4000 8:-3724
+1 1:-1720 2:266 3:914 4:-164 5:-4000 6:4000 7:4000 8:-3606
+1 1:-1560 2:74 3:929 4:-29 5:-4000 6:4000 7:4000 8:-3480
+1 1:-1491 2:83 3:-102 4:0 5:-4000 6:4000 7:4000 8:-3345
+1 1:-1491 2:-17 3:-702 4:75 5:-4000 6:4000 7:4000 8:-3200
+1 1:-844 2:-133 3:-734 4:77 5:-4000 6:4000 7:4000 8:-3047
+1 1:-494 2:-117 3:-168 4:32 5:-4000 6:4000 7:4000 8:-2961
+1 1:-307 2:43 3:677 4:53 5:-4000 6:4000 7:4000 8:-2906
+1 1:69 2:98 3:373 4:66 5:-4000 6:4000 7:4000 8:-2799
+1 1:220 2:7 3:-79 4:33 5:-4000 6:4000 7:4000 8:-2635
+1 1:382 2:21 3:392 4:6 5:-3855 6:3265 7:4000 8:-2391
+1 1:790 2:132 3:841 4:-1 5:-2289 6:2319 7:4000 8:-2063
+1 1:957 2:85 3:828 4:5 5:-846 6:1482 7:4000 8:-1624
+1 1:1098 2:-31 3:657 4:50 5:310 6:730 7:4000 8:-1143
+1 1:1050 2:-93 3:655 4:-8 5:1930 6:107 7:4000 8:-777
+1 1:1092 2:-143 3:1322 4:-51 5:3851 6:-476 7:4000 8:-431
+1 1:1030 2:-153 3:1965 4:1 5:4000 6:-1170 7:2256 8:-128
+1 1:559 2:-173 3:1101 4:-86 5:4000 6:-2014 7:-1853 8:214
+1 1:119 2:-228 3:728 4:-98 5:4000 6:-2986 7:-4000 8:666
+1 1:-187 2:-158 3:1940 4:-31 5:4000 6:-4000 7:-4000 8:1138
+1 1:-117 2:-17 3:2198 4:-45 5:4000 6:-4000 7:-4000 8:1654
+1 1:-61 2:-59 3:801 4:20 5:4000 6:-4000 7:-4000 8:2054
+1 1:2 2:-104 3:-537 4:81 5:4000 6:-4000 7:-4000 8:2182
+1 1:211 2:-86 3:-1612 4:27 5:4000 6:-4000 7:-4000 8:2051
+1 1:454 2:-69 3:-2204 4:-8 5:4000 6:-4000 7:-4000 8:1859
+1 1:759 2:1 3:-2245 4:3 5:4000 6:-4000 7:-4000 8:1663
+1 1:1116 2:24 3:-2342 4:-96 5:4000 6:-4000 7:-4000 8:1403
+1 1:1319 2:11 3:-1948 4:-104 5:4000 6:-4000 7:-4000 8:1127
+1 1:855 2:-18 3:-2769 4:-70 5:4000 6:-4000 7:-4000 8:629
+1 1:422 2:-38 3:-3111 4:-13 5:4000 6:-4000 7:-4000 8:-23
+1 1:513 2:18 3:-2769 4:91 5:4000 6:-4000 7:-4000 8:-839
+1 1:425 2:33 3:-2807 4:77 5:3660 6:-4000 7:-4000 8:-1809
+1 1:-148 2:27 3:-2045 4:91 5:-229 6:-4000 7:-4000 8:-2811
+1 1:-846 2:-14 3:-1673 4:118 5:-3653 6:-4000 7:-4000 8:-3718
+1 1:-1150 2:-28 3:-999 4:215 5:-4000 6:-4000 7:-4000 8:-4000
+1 1:-1407 2:98 3:-248 4:280 5:-4000 6:-4000 7:-4000 8:-4000
+1 1:-1560 2:102 3:657 4:296 5:-4000 6:-4000 7:-4000 8:-4000
+1 1:-1528 2:184 3:1257 4:252 5:-4000 6:-4000 7:-4000 8:-4000
+1 1:-1262 2:338 3:1442 4:199 5:-4000 6:-663 7:-4000 8:-4000
+1 1:-1045 2:306 3:1691 4:188 5:-4000 6:3538 7:-4000 8:-4000
+1 1:-816 2:316 3:1560 4:94 5:-4000 6:4000 7:-4000 8:-3779
+1 1:-311 2:243 3:1436 4:12 5:-3604 6:4000 7:-4000 8:-2350
+1 1:146 2:140 3:1127 4:-98 5:-1854 6:4000 7:-4000 8:-1325
+1 1:590 2:144 3:980 4:-202 5:448 6:4000 7:-4000 8:47
+1 1:721 2:98 3:980 4:-253 5:2255 6:4000 7:-3924 8:1663
+1 1:689 2:41 3:1119 4:-221 5:4000 6:4000 7:-2903 8:2704
+1 1:519 2:9 3:1127 4:-147 5:4000 6:4000 7:-3000 8:3391
+1 1:371 2:-11 3:1175 4:-137 5:4000 6:4000 7:-4000 8:3792
+1 1:267 2:13 3:1703 4:-137 5:4000 6:4000 7:-4000 8:4000
+1 1:50 2:13 3:2210 4:-184 5:4000 6:4000 7:-4000 8:3831
+1 1:-76 2:5 3:2030 4:-121 5:4000 6:4000 7:-4000 8:2816
+1 1:-227 2:-3 3:1489 4:-2 5:4000 6:4000 7:-4000 8:1728
+1 1:-339 2:12 3:830 4:31 5:4000 6:3361 7:-4000 8:621
+1 1:-352 2:50 3:299 4:32 5:3538 6:1539 7:-2572 8:-163
+1 1:-181 2:42 3:-287 4:35 5:2581 6:-126 7:-1735 8:-899
+1 1:-30 2:42 3:-1071 4:-2 5:1091 6:-1902 7:-1962 8:-1820
+1 1:166 2:0 3:-1101 4:-38 5:-488 6:-3529 7:-1643 8:-2201
+1 1:366 2:-45 3:-756 4:-106 5:-1729 6:-4000 7:-786 8:-2035
+1 1:287 2:-92 3:-485 4:-159 5:-2996 6:-4000 7:319 8:-1957
+1 1:319 2:-113 3:-255 4:-153 5:-2856 6:-4000 7:1223 8:-2392
+1 1:275 2:-94 3:97 4:-100 5:-727 6:-4000 7:2948 8:-2742
+1 1:230 2:-160 3:556 4:-2 5:3352 6:-4000 7:4000 8:-3345
+1 1:180 2:-153 3:610 4:-41 5:4000 6:-3588 7:4000 8:-4000
+1 1:70 2:-83 3:400 4:-18 5:4000 6:-1523 7:4000 8:-4000
+1 1:59 2:-23 3:642 4:38 5:4000 6:795 7:4000 8:-4000
+1 1:89 2:43 3:651 4:31 5:4000 6:3265 7:4000 8:-4000
+1 1:90 2:7 3:-276 4:-40 5:4000 6:4000 7:4000 8:-4000
+1 1:59 2:-38 3:-1126 4:-114 5:4000 6:4000 7:4000 8:-4000
+1 1:101 2:-72 3:-1931 4:-136 5:4000 6:4000 7:4000 8:-4000
+1 1:51 2:-59 3:-2598 4:-164 5:4000 6:4000 7:4000 8:-4000
+1 1:80 2:-57 3:-2824 4:-115 5:4000 6:4000 7:4000 8:-4000
+1 1:42 2:-47 3:-2672 4:-163 5:4000 6:4000 7:1569 8:-4000
+1 1:16 2:-38 3:-2253 4:-175 5:4000 6:4000 7:-2109 8:-4000
+1 1:13 2:-100 3:-1427 4:-119 5:4000 6:4000 7:-4000 8:-4000
+1 1:-19 2:-23 3:-420 4:-96 5:4000 6:4000 7:-4000 8:-4000
+1 1:-10 2:130 3:-14 4:-60 5:4000 6:4000 7:-4000 8:-4000
+1 1:-70 2:148 3:398 4:-90 5:4000 6:4000 7:-4000 8:-4000
+1 1:-70 2:35 3:628 4:-82 5:4000 6:4000 7:-4000 8:-4000
+1 1:-95 2:-73 3:724 4:3 5:4000 6:3265 7:-4000 8:-4000
+1 1:-116 2:-220 3:787 4:63 5:4000 6:983 7:-4000 8:-4000
+1 1:-117 2:-440 3:557 4:141 5:4000 6:-223 7:-4000 8:-4000
+1 1:-25 2:-399 3:692 4:207 5:3410 6:-180 7:-3533 8:-3024
+1 1:30 2:-207 3:663 4:194 5:-222 6:-206 7:-3390 8:1977
+1 1:-121 2:-171 3:608 4:207 5:-3213 6:-564 7:-1899 8:4000
+1 1:-188 2:-141 3:528 4:240 5:-4000 6:-651 7:-48 8:4000
+1 1:-193 2:-230 3:370 4:195 5:-4000 6:-499 7:1280 8:4000
+1 1:-155 2:-199 3:410 4:161 5:-4000 6:-350 7:1866 8:4000
+1 1:-46 2:-220 3:349 4:122 5:-4000 6:-279 7:2570 8:4000
+1 1:-19 2:-369 3:510 4:74 5:-4000 6:-423 7:4000 8:4000
+1 1:9 2:-379 3:720 4:72 5:-4000 6:-835 7:4000 8:4000
+1 1:16 2:-452 3:663 4:-34 5:-4000 6:-1313 7:4000 8:4000
+1 1:-67 2:-335 3:404 4:-109 5:-4000 6:-2075 7:4000 8:4000
+1 1:-163 2:-106 3:248 4:-86 5:-4000 6:-2965 7:4000 8:4000
+1 1:-158 2:341 3:40 4:23 5:-4000 6:-3190 7:4000 8:4000
+1 1:-26 2:767 3:-145 4:140 5:-4000 6:-2570 7:4000 8:4000
+1 1:105 2:941 3:-204 4:199 5:-4000 6:-2014 7:4000 8:4000
+1 1:139 2:864 3:-215 4:233 5:-4000 6:-1420 7:4000 8:4000
+1 1:73 2:538 3:-114 4:272 5:-4000 6:-1095 7:4000 8:4000
+1 1:-37 2:227 3:-94 4:299 5:-4000 6:-1095 7:4000 8:4000
+1 1:-82 2:-50 3:-132 4:323 5:-4000 6:-917 7:4000 8:4000
+1 1:-77 2:-225 3:-192 4:316 5:-4000 6:-838 7:4000 8:4000
+1 1:-94 2:-275 3:-99 4:123 5:-4000 6:-798 7:4000 8:4000
+1 1:-31 2:-113 3:-50 4:-36 5:-4000 6:-936 7:4000 8:4000
+1 1:-41 2:-26 3:-26 4:-86 5:-4000 6:-1116 7:4000 8:4000
+1 1:-33 2:-41 3:48 4:-94 5:-4000 6:-1376 7:4000 8:4000
+1 1:-9 2:-78 3:68 4:-177 5:-3474 6:-1875 7:4000 8:4000
+1 1:-96 2:-111 3:71 4:-250 5:1537 6:-1987 7:4000 8:4000
+1 1:3 2:74 3:3 4:-397 5:4000 6:-1526 7:4000 8:4000
+1 1:64 2:322 3:6 4:-552 5:4000 6:-1160 7:4000 8:4000
+1 1:123 2:412 3:98 4:-359 5:4000 6:-965 7:4000 8:4000
+1 1:239 2:460 3:184 4:44 5:4000 6:-686 7:4000 8:4000
+1 1:188 2:549 3:190 4:329 5:4000 6:-891 7:4000 8:4000
+1 1:130 2:440 3:142 4:219 5:4000 6:-1381 7:4000 8:4000
+1 1:116 2:288 3:22 4:68 5:557 6:-1727 7:4000 8:4000
+1 1:86 2:223 3:-27 4:-110 5:-2535 6:-1737 7:4000 8:4000
+1 1:-13 2:60 3:-19 4:-237 5:-2242 6:-1095 7:4000 8:4000
+1 1:-58 2:-104 3:-41 4:-100 5:-50 6:-202 7:4000 8:4000
+1 1:-69 2:-264 3:-30 4:-97 5:1905 6:624 7:4000 8:2290
+1 1:-102 2:-351 3:-16 4:-198 5:2941 6:1144 7:4000 8:-730
+1 1:-94 2:-375 3:-54 4:-303 5:3008 6:823 7:4000 8:-3113
+1 1:-99 2:-372 3:-82 4:-196 5:953 6:571 7:4000 8:-4000
+1 1:-103 2:-408 3:-84 4:-36 5:-3978 6:665 7:4000 8:-4000
+1 1:-164 2:-401 3:-97 4:33 5:-4000 6:831 7:4000 8:-4000
+1 1:-180 2:-314 3:-54 4:105 5:-4000 6:1734 7:4000 8:-4000
+1 1:-164 2:-295 3:-71 4:-17 5:-4000 6:3265 7:4000 8:-4000
+1 1:-164 2:-244 3:-38 4:-93 5:-4000 6:4000 7:4000 8:-4000
+1 1:-26 2:-81 3:-13 4:-32 5:-4000 6:4000 7:4000 8:-4000
+1 1:52 2:125 3:-18 4:-5 5:-2570 6:4000 7:4000 8:-4000
+1 1:40 2:205 3:-21 4:53 5:-2629 6:4000 7:4000 8:-4000
+1 1:-3 2:273 3:-72 4:40 5:-4000 6:4000 7:4000 8:-4000
+1 1:-37 2:181 3:-34 4:-49 5:-4000 6:4000 7:4000 8:-4000
+1 1:-13 2:113 3:-82 4:-132 5:-4000 6:4000 7:4000 8:-4000
+1 1:-60 2:-1 3:-129 4:-229 5:-4000 6:4000 7:3620 8:-4000
+1 1:-39 2:-264 3:-86 4:-373 5:-4000 6:3292 7:2873 8:-4000
+1 1:-21 2:-379 3:-57 4:-446 5:-4000 6:2904 7:2297 8:-4000
+1 1:-77 2:-591 3:-9 4:-359 5:-2224 6:2373 7:1569 8:-4000
+1 1:-50 2:-560 3:3 4:-198 5:2569 6:1994 7:1019 8:-4000
+1 1:-55 2:-202 3:3 4:-114 5:4000 6:1759 7:467 8:-4000
+1 1:-42 2:38 3:-27 4:-61 5:4000 6:1180 7:-239 8:-4000
+1 1:24 2:180 3:-7 4:36 5:4000 6:481 7:-774 8:-4000
+1 1:103 2:534 3:8 4:34 5:4000 6:-306 7:-1397 8:-4000
+1 1:192 2:810 3:-31 4:29 5:4000 6:-812 7:-2184 8:-4000
+1 1:269 2:924 3:-29 4:44 5:4000 6:-997 7:-2925 8:-4000
+1 1:245 2:898 3:-11 4:61 5:4000 6:-867 7:-3688 8:-4000
+1 1:147 2:579 3:-38 4:83 5:4000 6:-619 7:-4000 8:-4000
+1 1:130 2:258 3:-73 4:67 5:4000 6:-394 7:-4000 8:-4000
+1 1:54 2:48 3:-46 4:47 5:4000 6:-647 7:-4000 8:-4000
+1 1:7 2:-59 3:-54 4:55 5:4000 6:-1396 7:-4000 8:-4000
+1 1:11 2:-122 3:-74 4:85 5:4000 6:-2094 7:-4000 8:-4000
+1 1:-15 2:-150 3:-45 4:69 5:4000 6:-2400 7:-4000 8:-4000
+1 1:-41 2:-122 3:-53 4:67 5:4000 6:-2635 7:-4000 8:-4000
+1 1:-69 2:-116 3:-62 4:50 5:4000 6:-2937 7:-4000 8:-4000
+1 1:-68 2:-122 3:-66 4:-39 5:4000 6:-3596 7:-4000 8:-4000
+1 1:-59 2:-114 3:-44 4:-69 5:2443 6:-4000 7:-4000 8:-4000
+1 1:-53 2:-143 3:11 4:-24 5:487 6:-4000 7:-4000 8:-4000
+1 1:-68 2:-173 3:-15 4:16 5:493 6:-4000 7:-4000 8:-2084
+1 1:-101 2:-240 3:-13 4:64 5:1995 6:-4000 7:-4000 8:-559
+1 1:-53 2:-354 3:-16 4:54 5:2710 6:-4000 7:-4000 8:813
+1 1:2 2:-334 3:-74 4:38 5:3554 6:-4000 7:-4000 8:2153
+1 1:5 2:-314 3:-57 4:38 5:4000 6:-4000 7:-4000 8:2639
+1 1:-2 2:-306 3:-53 4:44 5:4000 6:-4000 7:-4000 8:1793
+1 1:-37 2:-267 3:-51 4:37 5:4000 6:-4000 7:-4000 8:-886
+1 1:-77 2:-183 3:-39 4:-9 5:4000 6:-4000 7:-4000 8:-1951
+1 1:-70 2:90 3:-17 4:-17 5:4000 6:-4000 7:-4000 8:1313
+1 1:-13 2:428 3:-22 4:-54 5:4000 6:-4000 7:-4000 8:3719
+1 1:-36 2:549 3:-26 4:-66 5:4000 6:-4000 7:-4000 8:3161
+1 1:-8 2:461 3:-46 4:6 5:4000 6:-4000 7:-4000 8:3127
+1 1:73 2:237 3:2 4:73 5:4000 6:-4000 7:-4000 8:3279
+1 1:45 2:82 3:28 4:80 5:2872 6:-4000 7:-4000 8:1663
+1 1:19 2:26 3:-7 4:33 5:2443 6:-4000 7:-3526 8:-319
+1 1:-3 2:13 3:9 4:-6 5:2360 6:-1519 7:-3266 8:-93
+1 1:1 2:22 3:-10 4:-29 5:2293 6:1148 7:-2804 8:935
+1 1:-21 2:-32 3:10 4:-78 5:2356 6:1993 7:-2508 8:1270
+1 1:-11 2:79 3:17 4:-172 5:2699 6:1033 7:-2043 8:1899
+1 1:31 2:110 3:11 4:-238 5:4000 6:1006 7:-1388 8:1716
+1 1:23 2:33 3:42 4:-219 5:4000 6:1378 7:-929 8:2680
+1 1:21 2:-149 3:71 4:-198 5:4000 6:1398 7:-77 8:3404
+1 1:-9 2:-253 3:59 4:-170 5:4000 6:1138 7:-318 8:3079
+1 1:-10 2:-242 3:23 4:-114 5:4000 6:945 7:-672 8:2575
+1 1:-33 2:-374 3:3 4:-8 5:4000 6:1125 7:-705 8:998
+1 1:-21 2:-253 3:-50 4:142 5:4000 6:1358 7:-1071 8:-248
+1 1:-11 2:-269 3:-72 4:264 5:4000 6:1993 7:-420 8:-664
+1 1:-69 2:-448 3:-83 4:257 5:4000 6:2758 7:767 8:410
+1 1:8 2:-275 3:-22 4:163 5:4000 6:3556 7:1359 8:1150
+1 1:102 2:-54 3:93 4:182 5:4000 6:4000 7:1310 8:1085
+1 1:44 2:-231 3:147 4:183 5:4000 6:4000 7:1516 8:1264
+1 1:-1 2:-244 3:111 4:77 5:4000 6:4000 7:666 8:990
+1 1:19 2:-93 3:69 4:-2 5:4000 6:4000 7:-255 8:701
+1 1:-12 2:-83 3:45 4:-25 5:4000 6:4000 7:189 8:1026
+1 1:-54 2:142 3:28 4:-37 5:4000 6:4000 7:792 8:1716
+1 1:-171 2:384 3:7 4:-62 5:4000 6:4000 7:1801 8:1988
+1 1:-195 2:672 3:12 4:-61 5:4000 6:4000 7:1540 8:2029
+1 1:-64 2:892 3:48 4:-65 5:4000 6:2758 7:265 8:2249
+1 1:53 2:898 3:48 4:-69 5:4000 6:1537 7:-1011 8:2357
+1 1:166 2:726 3:40 4:-34 5:4000 6:744 7:-1006 8:2377
+1 1:112 2:457 3:35 4:-34 5:4000 6:441 7:789 8:2350
+1 1:37 2:193 3:63 4:-49 5:4000 6:621 7:3465 8:2249
+1 1:31 2:111 3:62 4:-57 5:4000 6:928 7:4000 8:2119
+1 1:42 2:74 3:142 4:-53 5:4000 6:1204 7:2647 8:2042
+1 1:23 2:-14 3:451 4:-63 5:603 6:1378 7:-37 8:1964
+1 1:-33 2:-11 3:511 4:-90 5:-514 6:1157 7:-1337 8:2111
+1 1:-29 2:-58 3:84 4:-90 5:-478 6:789 7:229 8:2510
+1 1:-8 2:-28 3:-119 4:-103 5:998 6:331 7:2256 8:2636
+1 1:4 2:-97 3:-241 4:-72 5:2906 6:-204 7:1467 8:2078
+1 1:-70 2:-269 3:-463 4:-26 5:2484 6:-594 7:-475 8:1055
+1 1:-119 2:-320 3:-554 4:-55 5:1584 6:-1523 7:-2276 8:-84
+1 1:-100 2:-325 3:-650 4:-49 5:1863 6:-3059 7:-1802 8:-1143
+1 1:-78 2:-310 3:-515 4:-13 5:1539 6:-4000 7:-672 8:-2140
+1 1:-47 2:-257 3:-245 4:-45 5:142 6:-4000 7:-1231 8:-2995
+1 1:-30 2:-160 3:-60 4:-78 5:-924 6:-4000 7:-2133 8:-3191
+1 1:-4 2:-127 3:66 4:-63 5:-1235 6:-4000 7:-2223 8:-2442
+1 1:-1 2:-72 3:107 4:-57 5:-1916 6:-3169 7:-2028 8:-1143
+1 1:32 2:-6 3:102 4:-25 5:-2402 6:-1949 7:-1238 8:-229
+1 1:20 2:13 3:116 4:0 5:-3278 6:-1005 7:-128 8:507
+1 1:33 2:55 3:84 4:-6 5:-4000 6:-379 7:820 8:1496
+1 1:19 2:1 3:50 4:-13 5:-3978 6:-154 7:1734 8:1988
+1 1:-49 2:-68 3:-24 4:-22 5:-4000 6:-93 7:1845 8:2119
+1 1:-34 2:-74 3:59 4:10 5:-4000 6:271 7:1925 8:2097
+1 1:-12 2:-54 3:343 4:17 5:-4000 6:933 7:1841 8:2160
+1 1:5 2:6 3:398 4:-6 5:-4000 6:1994 7:2256 8:2237
+1 1:-5 2:39 3:527 4:-19 5:-4000 6:3472 7:2972 8:2290
+1 1:1 2:45 3:1212 4:-1 5:-4000 6:4000 7:3214 8:2616
+1 1:3 2:36 3:2087 4:-2 5:-4000 6:4000 7:4000 8:2888
+1 1:-10 2:53 3:1745 4:7 5:-4000 6:4000 7:4000 8:3002
+1 1:2 2:45 3:777 4:53 5:-4000 6:4000 7:4000 8:3014
+1 1:0 2:32 3:708 4:9 5:-4000 6:4000 7:4000 8:3031
+1 1:31 2:14 3:-28 4:-47 5:-4000 6:4000 7:4000 8:3096
+1 1:21 2:9 3:-1293 4:-38 5:-4000 6:4000 7:4000 8:3470
+1 1:1 2:52 3:-1907 4:-21 5:-4000 6:4000 7:4000 8:3845
+1 1:12 2:62 3:-2452 4:-49 5:-4000 6:4000 7:4000 8:3352
+1 1:7 2:66 3:-2706 4:-16 5:-4000 6:4000 7:4000 8:2626
+1 1:-1 2:63 3:-2510 4:38 5:-4000 6:4000 7:4000 8:2078
+1 1:-1 2:44 3:-1729 4:44 5:-4000 6:4000 7:4000 8:1663
+1 1:-14 2:17 3:-1165 4:44 5:-4000 6:4000 7:41 8:1403
+1 1:-36 2:49 3:-1022 4:59 5:-4000 6:4000 7:-2642 8:890
+1 1:-42 2:24 3:-287 4:77 5:-4000 6:4000 7:-2368 8:853
+1 1:-66 2:-51 3:18 4:73 5:-4000 6:4000 7:-255 8:1403
+1 1:-93 2:-68 3:-97 4:61 5:-4000 6:4000 7:2623 8:1632
+1 1:-79 2:-88 3:253 4:63 5:-4000 6:4000 7:4000 8:1832
+1 1:-66 2:-53 3:570 4:56 5:-4000 6:4000 7:4000 8:1541
+1 1:-55 2:-52 3:841 4:7 5:-4000 6:4000 7:4000 8:1183
+1 1:-25 2:-69 3:1108 4:-16 5:-4000 6:3837 7:4000 8:938
+1 1:-20 2:-102 3:936 4:-3 5:-4000 6:795 7:4000 8:414
+1 1:-33 2:-151 3:657 4:27 5:-3718 6:-2026 7:4000 8:182
+1 1:-31 2:-105 3:504 4:23 5:-1524 6:-4000 7:4000 8:-257
+1 1:32 2:-105 3:114 4:-2 5:758 6:-4000 7:4000 8:-565
+1 1:53 2:-66 3:-484 4:-48 5:1930 6:-4000 7:4000 8:-915
+1 1:1 2:21 3:-572 4:-73 5:1857 6:-4000 7:3738 8:-1189
+1 1:12 2:69 3:-357 4:-55 5:794 6:-4000 7:-1653 8:-1267
+1 1:41 2:154 3:-20 4:-67 5:-356 6:-4000 7:-4000 8:-1534
+1 1:51 2:195 3:312 4:-94 5:-409 6:-4000 7:-4000 8:-1776
+1 1:54 2:182 3:749 4:-101 5:-37 6:-4000 7:-4000 8:-1957
+1 1:38 2:152 3:1485 4:-48 5:720 6:-4000 7:-4000 8:-1911
+1 1:104 2:59 3:1806 4:29 5:1077 6:-4000 7:-4000 8:-1823
+1 1:166 2:16 3:1747 4:91 5:-217 6:-4000 7:-4000 8:-1774
+1 1:52 2:-72 3:1827 4:85 5:-2169 6:-4000 7:-4000 8:-1708
+1 1:-17 2:-219 3:1257 4:-33 5:-3591 6:-4000 7:-4000 8:-1650
+1 1:16 2:-330 3:345 4:-29 5:-3817 6:-4000 7:-4000 8:-1664
+1 1:18 2:-366 3:61 4:23 5:-2338 6:-4000 7:-4000 8:-1691
+1 1:18 2:-218 3:-161 4:-1 5:-1593 6:-4000 7:-4000 8:-1648
+1 1:65 2:-104 3:-170 4:-4 5:-2423 6:-4000 7:-4000 8:-1567
+1 1:269 2:-40 3:54 4:-22 5:-4000 6:-4000 7:-4000 8:-1469
+1 1:241 2:68 3:504 4:-29 5:-4000 6:-4000 7:-4000 8:-1274
+1 1:14 2:2 3:828 4:-14 5:-4000 6:-4000 7:-3857 8:-1103
+1 1:-4 2:-32 3:-25 4:-14 5:-4000 6:-4000 7:-1523 8:-875
+1 1:-111 2:37 3:-582 4:-82 5:-4000 6:-4000 7:-979 8:-545
+1 1:-224 2:159 3:-336 4:-76 5:-2822 6:-4000 7:-3118 8:-435
+1 1:139 2:189 3:-803 4:-34 5:-2341 6:-4000 7:-4000 8:-323
+1 1:1038 2:129 3:-1261 4:-130 5:-2969 6:-4000 7:-4000 8:-264
+1 1:979 2:168 3:-922 4:-229 5:-3978 6:-4000 7:-4000 8:-234
+1 1:112 2:59 3:-776 4:-260 5:-4000 6:-4000 7:-4000 8:-240
+1 1:1 2:-64 3:-450 4:-239 5:-4000 6:-4000 7:-4000 8:-226
+1 1:-257 2:-101 3:190 4:-121 5:-4000 6:-4000 7:-4000 8:-113
+1 1:-453 2:-60 3:785 4:-42 5:-4000 6:-4000 7:-4000 8:-44
+1 1:-719 2:-22 3:1489 4:-28 5:-4000 6:-4000 7:-4000 8:46
+1 1:-1105 2:12 3:1228 4:3 5:-4000 6:-4000 7:-4000 8:30
+1 1:-1216 2:33 3:258 4:42 5:-826 6:-4000 7:-4000 8:59
+1 1:-1365 2:-29 3:-674 4:77 5:2947 6:-3895 7:-4000 8:107
+1 1:-1296 2:241 3:-1872 4:56 5:4000 6:-2635 7:-4000 8:20
+1 1:-1038 2:513 3:-2578 4:-7 5:4000 6:-1461 7:-4000 8:88
+1 1:-765 2:473 3:-2155 4:-68 5:4000 6:-481 7:-4000 8:360
+1 1:-535 2:254 3:-1933 4:-104 5:4000 6:441 7:-4000 8:585
+1 1:-98 2:-78 3:-2241 4:-104 5:164 6:1181 7:-4000 8:621
+1 1:-14 2:-280 3:-1720 4:-63 5:-3573 6:1799 7:-4000 8:296
+1 1:-86 2:-468 3:-1687 4:-56 5:-4000 6:2356 7:-4000 8:-151
+1 1:168 2:-478 3:-1687 4:-16 5:-4000 6:2775 7:-4000 8:-658
+1 1:277 2:-526 3:-1286 4:50 5:-2708 6:3202 7:-4000 8:-1660
+1 1:501 2:-574 3:-413 4:158 5:-277 6:3552 7:-4000 8:-2409
+1 1:565 2:-373 3:923 4:187 5:2581 6:3836 7:-4000 8:-2428
+1 1:505 2:-347 3:1554 4:141 5:4000 6:4000 7:-4000 8:-2082
+1 1:605 2:-167 3:2852 4:144 5:4000 6:4000 7:-4000 8:-1746
+1 1:834 2:51 3:3967 4:81 5:4000 6:4000 7:-4000 8:-1501
+1 1:838 2:140 3:3328 4:-6 5:4000 6:4000 7:-4000 8:-875
+1 1:487 2:205 3:1485 4:-6 5:4000 6:4000 7:-3130 8:-366
+1 1:385 2:152 3:170 4:43 5:4000 6:4000 7:-1588 8:-230
+1 1:820 2:127 3:-782 4:130 5:4000 6:4000 7:-129 8:-297
+1 1:1181 2:-20 3:-1518 4:90 5:4000 6:4000 7:1214 8:-450
+1 1:855 2:-85 3:-1462 4:-47 5:4000 6:4000 7:1604 8:-753
+1 1:725 2:-157 3:-642 4:-122 5:4000 6:4000 7:1864 8:-1251
+1 1:691 2:-229 3:533 4:-214 5:4000 6:3983 7:2517 8:-1774
+1 1:202 2:-273 3:1741 4:-271 5:4000 6:3849 7:2843 8:-2376
+1 1:142 2:-336 3:3562 4:-284 5:4000 6:3686 7:3594 8:-3072
+1 1:202 2:-288 3:4000 4:-131 5:4000 6:3426 7:3214 8:-3675
+1 1:499 2:-86 3:3641 4:13 5:4000 6:3199 7:1345 8:-3935
+1 1:994 2:207 3:2539 4:64 5:4000 6:3007 7:-269 8:-3671
+1 1:920 2:269 3:-269 4:50 5:4000 6:2904 7:-859 8:-2910
+1 1:774 2:270 3:-2424 4:-69 5:4000 6:2958 7:1098 8:-1986
+1 1:1572 2:290 3:-3526 4:-84 5:4000 6:3101 7:4000 8:-1168
+1 1:1701 2:241 3:-4000 4:-104 5:4000 6:3357 7:4000 8:-817
+1 1:273 2:243 3:-4000 4:-68 5:4000 6:3686 7:4000 8:-500
+1 1:-1158 2:103 3:-2542 4:29 5:4000 6:4000 7:4000 8:-287
+1 1:-2440 2:-91 3:-543 4:55 5:4000 6:4000 7:4000 8:-260
+1 1:-3115 2:-82 3:56 4:95 5:4000 6:4000 7:4000 8:106
+1 1:-3697 2:40 3:256 4:102 5:3737 6:4000 7:4000 8:604
+1 1:-3817 2:191 3:64 4:69 5:2872 6:4000 7:4000 8:1183
+1 1:-3412 2:201 3:-948 4:28 5:1994 6:4000 7:4000 8:1468
+1 1:-2932 2:168 3:-1461 4:8 5:1071 6:4000 7:4000 8:1793
+1 1:-2022 2:143 3:-1577 4:105 5:245 6:4000 7:4000 8:2348
+1 1:-383 2:164 3:-515 4:199 5:-550 6:4000 7:4000 8:2237
+1 1:1572 2:256 3:316 4:221 5:-1593 6:4000 7:4000 8:2078
+1 1:2648 2:258 3:917 4:238 5:-2730 6:4000 7:4000 8:1899
+1 1:3432 2:241 3:1174 4:102 5:-3474 6:3916 7:3214 8:2054
+1 1:3171 2:217 3:1105 4:11 5:-3456 6:3686 7:-2804 8:2290
+1 1:1507 2:92 3:828 4:31 5:-2242 6:3658 7:-4000 8:2092
+1 1:342 2:-44 3:193 4:-36 5:-53 6:3621 7:-4000 8:2498
+1 1:-515 2:-84 3:211 4:-99 5:2581 6:3472 7:-4000 8:2900
+1 1:-1430 2:-83 3:736 4:-155 5:4000 6:3333 7:-4000 8:3031
+1 1:-1687 2:69 3:1835 4:-249 5:4000 6:3212 7:-4000 8:3291
+1 1:-1351 2:94 3:2158 4:-220 5:4000 6:3101 7:-4000 8:3144
+1 1:-1150 2:12 3:1770 4:-130 5:4000 6:2971 7:-4000 8:2809
+1 1:-807 2:53 3:1692 4:-192 5:4000 6:2821 7:-4000 8:2510
+1 1:-609 2:55 3:1068 4:-348 5:4000 6:2748 7:-4000 8:2111
+1 1:-482 2:120 3:996 4:-314 5:4000 6:2685 7:-4000 8:1753
+1 1:351 2:64 3:69 4:-221 5:4000 6:2631 7:-4000 8:1445
+1 1:1281 2:-136 3:-1106 4:-226 5:4000 6:2515 7:-4000 8:1270
+1 1:2085 2:-86 3:-948 4:-130 5:4000 6:2377 7:-4000 8:1142
+1 1:2394 2:49 3:-1787 4:-100 5:4000 6:2190 7:-4000 8:960
+1 1:1791 2:38 3:-2607 4:-10 5:4000 6:1929 7:-4000 8:947
+1 1:1065 2:-53 3:-2370 4:248 5:4000 6:1598 7:-2125 8:1174
+1 1:307 2:-168 3:-1879 4:337 5:4000 6:1157 7:2633 8:1403
+1 1:-477 2:-137 3:-690 4:345 5:4000 6:597 7:4000 8:1728
+1 1:-779 2:-69 3:1436 4:280 5:4000 6:-68 7:4000 8:2041
+1 1:-951 2:-176 3:2392 4:221 5:4000 6:-792 7:4000 8:1918
+1 1:-1143 2:-266 3:2604 4:64 5:1669 6:-1396 7:4000 8:1859
+1 1:-1219 2:-207 3:2875 4:-167 5:-4000 6:-1961 7:4000 8:1598
+1 1:-908 2:-153 3:2136 4:-173 5:-4000 6:-2481 7:4000 8:1150
+1 1:-619 2:-107 3:895 4:-53 5:4000 6:-2819 7:4000 8:723
+1 1:-387 2:16 3:-162 4:1 5:4000 6:-2998 7:4000 8:182
+1 1:42 2:132 3:-358 4:-46 5:4000 6:-2965 7:4000 8:-244
+1 1:333 2:250 3:-470 4:-22 5:4000 6:-2737 7:1825 8:-577
+1 1:408 2:247 3:-403 4:0 5:-2550 6:-2457 7:1503 8:-384
+1 1:167 2:69 3:-225 4:-13 5:26 6:-2185 7:1866 8:286
+1 1:277 2:-42 3:-342 4:52 5:4000 6:-1977 7:1467 8:760
+1 1:528 2:-118 3:-514 4:140 5:4000 6:-1851 7:815 8:916
+1 1:410 2:-91 3:-1166 4:73 5:4000 6:-1766 7:-550 8:992
+1 1:208 2:-35 3:-2112 4:35 5:3554 6:-1688 7:-1735 8:853
+1 1:5 2:-68 3:-2479 4:77 5:-4000 6:-1640 7:-2536 8:751
+1 1:35 2:-70 3:-1714 4:50 5:-4000 6:-1656 7:-2756 8:723
+1 1:-41 2:-114 3:-1297 4:-14 5:-4000 6:-1654 7:-2995 8:656
+1 1:234 2:-51 3:-711 4:61 5:-4000 6:-1550 7:-2795 8:785
+1 1:798 2:-84 3:-503 4:169 5:-4000 6:-1262 7:-2642 8:721
+1 1:850 2:-183 3:-829 4:-39 5:-4000 6:-928 7:-3326 8:592
+1 1:668 2:-167 3:-544 4:-124 5:-4000 6:-615 7:-3851 8:412
+1 1:593 2:-197 3:-776 4:-147 5:-4000 6:-293 7:-4000 8:190
+1 1:501 2:-173 3:-226 4:-178 5:-4000 6:-132 7:-4000 8:66
+1 1:371 2:-208 3:215 4:-32 5:-4000 6:-151 7:-4000 8:-52
+1 1:165 2:-292 3:203 4:-9 5:-4000 6:-371 7:-4000 8:-19
+1 1:-16 2:-344 3:508 4:54 5:-4000 6:-809 7:-4000 8:2
+1 1:-270 2:-340 3:882 4:-2 5:-4000 6:-1396 7:-4000 8:191
+1 1:-482 2:-287 3:1473 4:-153 5:-4000 6:-2172 7:-4000 8:499
+1 1:-386 2:-247 3:1473 4:-141 5:-4000 6:-3051 7:-4000 8:395
+1 1:-148 2:-179 3:1088 4:-121 5:-4000 6:-3895 7:-4000 8:-23
+1 1:235 2:-118 3:570 4:-116 5:-4000 6:-4000 7:-4000 8:-207
+1 1:511 2:-21 3:431 4:-132 5:-4000 6:-4000 7:-4000 8:-207
+1 1:165 2:-112 3:580 4:4 5:-4000 6:-4000 7:-4000 8:-480
+1 1:-102 2:-231 3:527 4:146 5:-4000 6:-4000 7:-4000 8:-1131
+1 1:-51 2:-227 3:9 4:178 5:-4000 6:-4000 7:-4000 8:-1465
+1 1:-474 2:-314 3:-798 4:183 5:-4000 6:-4000 7:-4000 8:-1078
+1 1:-641 2:-199 3:-862 4:134 5:-4000 6:-4000 7:-4000 8:-1235
+1 1:-518 2:83 3:-385 4:159 5:-4000 6:-4000 7:-4000 8:-1641
+1 1:-719 2:208 3:-147 4:166 5:-4000 6:-4000 7:-4000 8:-1660
+1 1:-693 2:266 3:115 4:130 5:-4000 6:-4000 7:-3130 8:-1954
+1 1:-614 2:382 3:372 4:101 5:-4000 6:-4000 7:-2288 8:-1465
+1 1:-500 2:512 3:690 4:87 5:-4000 6:-4000 7:-1445 8:-1049
+1 1:-84 2:642 3:980 4:53 5:-4000 6:-4000 7:-602 8:-944
+1 1:304 2:746 3:931 4:88 5:-4000 6:-4000 7:73 8:-759
+1 1:704 2:774 3:1410 4:140 5:-4000 6:-4000 7:598 8:-1052
+1 1:668 2:771 3:1745 4:126 5:-4000 6:-2705 7:1066 8:-787
+1 1:399 2:737 3:1501 4:181 5:-4000 6:-1396 7:1581 8:-161
+1 1:322 2:666 3:1119 4:170 5:-4000 6:-264 7:1864 8:377
+1 1:188 2:605 3:410 4:156 5:-4000 6:766 7:1996 8:481
+1 1:134 2:550 3:-285 4:195 5:-4000 6:1722 7:2256 8:341
+1 1:149 2:498 3:-881 4:167 5:-4000 6:2633 7:2505 8:210
+1 1:190 2:455 3:-1126 4:76 5:-4000 6:3491 7:3062 8:114
+1 1:226 2:376 3:-1386 4:41 5:-4000 6:4000 7:3838 8:253
+1 1:256 2:332 3:-1404 4:45 5:-4000 6:4000 7:4000 8:393
+1 1:188 2:335 3:-1101 4:-34 5:-4000 6:4000 7:4000 8:604
+1 1:126 2:347 3:-1261 4:-165 5:-4000 6:4000 7:4000 8:877
+1 1:625 2:335 3:-1166 4:-212 5:-4000 6:4000 7:4000 8:1085
+1 1:1226 2:288 3:-1010 4:-153 5:-4000 6:4000 7:4000 8:1272
+1 1:1363 2:233 3:-648 4:-98 5:-4000 6:4000 7:4000 8:1566
+1 1:652 2:224 3:-283 4:-13 5:-4000 6:4000 7:4000 8:1598
+1 1:-251 2:227 3:-347 4:-47 5:-3706 6:4000 7:4000 8:1264
+1 1:-844 2:174 3:-295 4:-76 5:-3408 6:3849 7:4000 8:621
+1 1:-1494 2:197 3:-328 4:-8 5:-3148 6:3426 7:4000 8:-33
+1 1:-1687 2:155 3:-194 4:10 5:-2904 6:3083 7:4000 8:147
+1 1:-1622 2:69 3:89 4:-5 5:-2681 6:2775 7:4000 8:239
+1 1:-1300 2:-14 3:122 4:-23 5:-2484 6:2580 7:4000 8:-301
+1 1:-1105 2:-91 3:123 4:-12 5:-2289 6:2442 7:4000 8:-192
+1 1:-801 2:-63 3:325 4:-50 5:-2116 6:2356 7:4000 8:149
+1 1:-371 2:-55 3:467 4:-137 5:-586 6:2319 7:4000 8:20
+1 1:-292 2:-40 3:609 4:-186 5:3363 6:2377 7:4000 8:-805
+1 1:-91 2:-24 3:663 4:-202 5:4000 6:2484 7:4000 8:-2181
+1 1:11 2:-50 3:606 4:-247 5:4000 6:2568 7:4000 8:-2736
+1 1:100 2:-108 3:606 4:-255 5:4000 6:2698 7:4000 8:-2697
+1 1:159 2:-177 3:436 4:-164 5:4000 6:2758 7:4000 8:-2947
+1 1:123 2:-218 3:324 4:-15 5:4000 6:2685 7:4000 8:-2248
+1 1:79 2:-269 3:171 4:23 5:4000 6:2515 7:4000 8:-914
+1 1:135 2:-310 3:65 4:39 5:4000 6:2162 7:4000 8:-504
+1 1:292 2:-281 3:3 4:69 5:4000 6:1669 7:4000 8:-12
+1 1:277 2:-211 3:-12 4:27 5:4000 6:1144 7:4000 8:839
+1 1:313 2:-176 3:70 4:43 5:4000 6:608 7:4000 8:1434
+1 1:358 2:-169 3:72 4:20 5:4000 6:-85 7:4000 8:1525
+1 1:408 2:-179 3:71 4:-2 5:4000 6:-824 7:4000 8:1307
+1 1:566 2:-187 3:22 4:-42 5:4000 6:-1307 7:4000 8:1199
+1 1:538 2:-179 3:16 4:-102 5:4000 6:-1588 7:4000 8:1142
+1 1:374 2:-162 3:13 4:-74 5:4000 6:-1656 7:4000 8:1236
+1 1:303 2:-169 3:89 4:-94 5:4000 6:-1522 7:4000 8:1207
+1 1:199 2:-179 3:91 4:-86 5:4000 6:-1160 7:4000 8:916
+1 1:130 2:-188 3:20 4:22 5:4000 6:-651 7:4000 8:785
+1 1:60 2:-188 3:-32 4:89 5:4000 6:-33 7:4000 8:760
+1 1:46 2:-174 3:-128 4:174 5:4000 6:636 7:4000 8:511
+1 1:42 2:-178 3:-155 4:163 5:4000 6:1344 7:2948 8:168
+1 1:-9 2:-135 3:-175 4:26 5:4000 6:2060 7:1679 8:-222
+1 1:-43 2:-149 3:-140 4:6 5:4000 6:2580 7:346 8:-545
+1 1:-58 2:-192 3:-145 4:96 5:4000 6:2970 7:-1006 8:-973
+1 1:-51 2:-167 3:-163 4:159 5:4000 6:3166 7:-2186 8:-1013
+1 1:-53 2:-166 3:-101 4:113 5:4000 6:3296 7:-3000 8:-370
+1 1:7 2:-173 3:-18 4:92 5:1863 6:3279 7:-3898 8:148
+1 1:30 2:-161 3:-10 4:91 5:37 6:3101 7:-4000 8:619
+1 1:31 2:-155 3:-45 4:91 5:-559 6:2971 7:-4000 8:953
+1 1:2 2:-133 3:-55 4:166 5:-2044 6:2709 7:-4000 8:1142
+1 1:-47 2:-71 3:-124 4:161 5:-4000 6:2314 7:-4000 8:1150
+1 1:-82 2:-91 3:-106 4:31 5:-4000 6:1862 7:-4000 8:846
+1 1:-110 2:-179 3:-66 4:-99 5:-4000 6:1474 7:-4000 8:671
+1 1:-164 2:-200 3:-67 4:-291 5:-4000 6:1133 7:-4000 8:617
+1 1:-227 2:-223 3:-43 4:-509 5:-4000 6:772 7:-4000 8:733
+1 1:-230 2:-270 3:-63 4:-589 5:-4000 6:508 7:-4000 8:882
+1 1:-120 2:-395 3:-82 4:-591 5:-4000 6:374 7:-4000 8:1077
+1 1:10 2:-440 3:-78 4:-490 5:-4000 6:368 7:-4000 8:680
+1 1:-40 2:-373 3:-27 4:-251 5:-4000 6:506 7:-4000 8:-109
+1 1:-17 2:-280 3:12 4:-131 5:-4000 6:701 7:-4000 8:-458
+1 1:81 2:-133 3:0 4:-102 5:-4000 6:707 7:-4000 8:-429
+1 1:101 2:-10 3:-33 4:-4 5:-4000 6:394 7:-4000 8:-155
+1 1:7 2:74 3:-96 4:76 5:-4000 6:-93 7:-4000 8:-724
+1 1:-88 2:184 3:-110 4:183 5:-4000 6:-985 7:-4000 8:-1124
+1 1:-122 2:258 3:-102 4:248 5:-4000 6:-1961 7:-4000 8:-1131
+1 1:-123 2:159 3:-98 4:209 5:-4000 6:-1752 7:-4000 8:-1121
+1 1:18 2:38 3:-61 4:226 5:-4000 6:-1113 7:-4000 8:-772
+1 1:51 2:-46 3:-68 4:255 5:-4000 6:-968 7:-4000 8:-692
+1 1:27 2:-137 3:-52 4:174 5:-4000 6:-541 7:-4000 8:-389
+1 1:30 2:-155 3:6 4:81 5:-4000 6:-381 7:-4000 8:-846
+1 1:44 2:-146 3:66 4:23 5:-4000 6:-351 7:-4000 8:-1583
+1 1:2 2:-85 3:85 4:-49 5:-4000 6:-109 7:-3127 8:-1143
+1 1:-78 2:76 3:61 4:-133 5:-4000 6:-158 7:-432 8:-61
+1 1:-69 2:212 3:-16 4:-80 5:-4000 6:-236 7:2104 8:446
+1 1:-12 2:335 3:-50 4:163 5:-4000 6:-331 7:4000 8:1142
+1 1:-8 2:353 3:34 4:122 5:-4000 6:-665 7:4000 8:2157
+1 1:-2 2:298 3:77 4:4 5:-4000 6:-1330 7:4000 8:1895
+1 1:48 2:215 3:62 4:0 5:-4000 6:-1135 7:4000 8:1317
+1 1:-3 2:124 3:80 4:-192 5:-2782 6:-349 7:4000 8:825
+1 1:-12 2:75 3:75 4:-316 5:106 6:5 7:4000 8:339
+1 1:-41 2:25 3:38 4:-373 5:1055 6:-22 7:4000 8:-56
+1 1:-27 2:41 3:35 4:-357 5:-852 6:-612 7:4000 8:-68
+1 1:-8 2:2 3:3 4:-230 5:-2904 6:-1615 7:4000 8:-141
+1 1:-25 2:17 3:-24 4:-177 5:-2436 6:-3232 7:4000 8:-404
+1 1:11 2:32 3:-86 4:-111 5:-3231 6:-3912 7:4000 8:-639
+1 1:27 2:-2 3:-86 4:154 5:-963 6:-3795 7:4000 8:-858
+1 1:19 2:13 3:6 4:633 5:2443 6:-3254 7:4000 8:-1143
+1 1:-4 2:12 3:106 4:785 5:3851 6:-3127 7:4000 8:-1823
+1 1:-8 2:44 3:98 4:716 5:4000 6:-4000 7:4000 8:-1884
+1 1:-46 2:3 3:8 4:663 5:4000 6:-4000 7:4000 8:-1469
+1 1:-64 2:-6 3:50 4:356 5:4000 6:-4000 7:4000 8:-1168
+1 1:-40 2:2 3:20 4:68 5:4000 6:-4000 7:4000 8:-1203
+1 1:-56 2:-10 3:-31 4:-97 5:4000 6:-4000 7:4000 8:-1143
+1 1:-66 2:26 3:-104 4:-245 5:4000 6:-4000 7:4000 8:-871
+1 1:-112 2:48 3:-182 4:-458 5:4000 6:-4000 7:4000 8:-953
+1 1:-107 2:38 3:-175 4:-760 5:4000 6:-3569 7:4000 8:-1274
+1 1:-48 2:-3 3:-74 4:-682 5:4000 6:-2420 7:4000 8:-1917
+1 1:-34 2:-33 3:-1 4:-472 5:4000 6:-1460 7:4000 8:-2324
+1 1:0 2:-46 3:9 4:-420 5:4000 6:-209 7:4000 8:-2452
+1 1:19 2:-73 3:24 4:-357 5:4000 6:980 7:4000 8:-2452
+1 1:21 2:-56 3:-70 4:-393 5:4000 6:2056 7:4000 8:-2295
+1 1:93 2:-30 3:-93 4:-493 5:4000 6:2375 7:4000 8:-2187
+1 1:169 2:-24 3:-101 4:-538 5:4000 6:1519 7:4000 8:-2360
+1 1:139 2:-1 3:-106 4:-420 5:4000 6:-170 7:2814 8:-2906
+1 1:60 2:-12 3:-61 4:-198 5:4000 6:-2208 7:-1197 8:-2973
+1 1:-15 2:-23 3:99 4:134 5:4000 6:-4000 7:-3590 8:-2714
+1 1:-81 2:25 3:280 4:376 5:4000 6:-4000 7:-4000 8:-3020
+1 1:-103 2:60 3:296 4:535 5:4000 6:-4000 7:-4000 8:-3553
+1 1:-126 2:60 3:256 4:689 5:4000 6:-4000 7:-4000 8:-3349
+1 1:-183 2:32 3:164 4:663 5:4000 6:-4000 7:-4000 8:-2649
+1 1:-193 2:47 3:59 4:455 5:4000 6:-4000 7:-4000 8:-2035
+1 1:-201 2:44 3:11 4:205 5:4000 6:-4000 7:-4000 8:-1189
+1 1:-163 2:36 3:-27 4:91 5:4000 6:-3569 7:-4000 8:-609
+1 1:-136 2:29 3:-91 4:-110 5:4000 6:-2465 7:-4000 8:-482
+1 1:-98 2:-10 3:-79 4:-212 5:4000 6:-1373 7:-4000 8:-18
+1 1:-39 2:-56 3:-83 4:-409 5:4000 6:25 7:-4000 8:341
+1 1:-9 2:-70 3:-66 4:-517 5:4000 6:1423 7:-4000 8:686
+1 1:33 2:-77 3:13 4:-263 5:4000 6:2442 7:-4000 8:1130
+1 1:46 2:-122 3:-11 4:-124 5:4000 6:3265 7:-4000 8:1255
+1 1:17 2:-146 3:-105 4:53 5:4000 6:3807 7:-4000 8:1509
+1 1:-60 2:-149 3:-151 4:402 5:4000 6:2515 7:-4000 8:1632
+1 1:-98 2:-133 3:-82 4:634 5:3851 6:518 7:-4000 8:1663
+1 1:-32 2:-143 3:-43 4:415 5:1994 6:-745 7:-2756 8:1753
+1 1:47 2:-98 3:-32 4:104 5:684 6:-2160 7:-1649 8:1727
+1 1:78 2:-28 3:39 4:-46 5:-238 6:-2157 7:-1291 8:1768
+1 1:106 2:-13 3:51 4:-283 5:-1333 6:-2420 7:-1095 8:1753
+1 1:72 2:2 3:-11 4:-420 5:-3213 6:-3453 7:-941 8:1750
+1 1:53 2:40 3:-36 4:-438 5:-3665 6:-4000 7:-244 8:1671
+1 1:35 2:40 3:-57 4:-637 5:-3712 6:-4000 7:588 8:1496
+1 1:33 2:33 3:-53 4:-724 5:-4000 6:-4000 7:2191 8:1108
+1 1:145 2:54 3:13 4:-670 5:-3844 6:-2677 7:4000 8:556
+1 1:135 2:57 3:23 4:-619 5:-4000 6:-714 7:4000 8:273
+1 1:78 2:83 3:47 4:-328 5:-4000 6:1409 7:4000 8:14
+1 1:105 2:-2 3:164 4:170 5:-4000 6:3491 7:4000 8:-129
+1 1:85 2:-153 3:190 4:508 5:-2484 6:4000 7:4000 8:-198
+1 1:76 2:-164 3:93 4:459 5:-1012 6:4000 7:4000 8:-294
+1 1:55 2:-194 3:-2 4:374 5:-2045 6:4000 7:4000 8:-415
+1 1:20 2:-179 3:-40 4:337 5:-4000 6:4000 7:4000 8:-653
+1 1:-29 2:-79 3:-89 4:141 5:-4000 6:4000 7:4000 8:-744
+1 1:-2 2:-26 3:-121 4:-161 5:-4000 6:4000 7:4000 8:-883
+1 1:-8 2:71 3:-86 4:-222 5:-4000 6:4000 7:4000 8:-953
+1 1:-166 2:174 3:-57 4:-24 5:-4000 6:4000 7:4000 8:-1083
+1 1:-280 2:338 3:17 4:141 5:-4000 6:4000 7:4000 8:-1018
+1 1:-248 2:526 3:109 4:362 5:-3855 6:4000 7:4000 8:-671
+1 1:-92 2:590 3:112 4:307 5:-1825 6:4000 7:4000 8:-211
+1 1:52 2:520 3:103 4:316 5:-1805 6:4000 7:4000 8:678
+1 1:134 2:335 3:76 4:314 5:-983 6:4000 7:2317 8:1727
+1 1:136 2:198 3:43 4:154 5:1069 6:4000 7:-986 8:2704
+1 1:202 2:103 3:42 4:104 5:557 6:2904 7:-3753 8:3487
+1 1:186 2:8 3:-48 4:-76 5:-1837 6:1994 7:-4000 8:4000
+1 1:117 2:-30 3:-59 4:-122 5:-4000 6:1567 7:-4000 8:4000
+1 1:106 2:-16 3:30 4:-122 5:-4000 6:807 7:-4000 8:3991
+1 1:55 2:-19 3:77 4:-158 5:-4000 6:766 7:-4000 8:3487
+1 1:15 2:-26 3:67 4:-151 5:-4000 6:1138 7:-4000 8:2900
+1 1:-49 2:-34 3:-1 4:-106 5:-4000 6:932 7:-4000 8:2367
+1 1:-60 2:-89 3:-103 4:47 5:-4000 6:919 7:-4000 8:2160
+1 1:-81 2:-118 3:-152 4:177 5:-4000 6:807 7:-4000 8:1793
+1 1:-41 2:-155 3:-87 4:258 5:-4000 6:953 7:-3236 8:1297
+1 1:-47 2:-197 3:-126 4:267 5:-3972 6:267 7:-1962 8:1346
+1 1:-33 2:-249 3:-240 4:181 5:-3274 6:-938 7:-1368 8:947
+1 1:23 2:-211 3:-166 4:181 5:-3258 6:-1961 7:-1700 8:361
+1 1:11 2:-135 3:-80 4:101 5:-3055 6:-4000 7:-2028 8:322
+1 1:19 2:-91 3:-55 4:-151 5:-3172 6:-4000 7:-1690 8:172
+1 1:21 2:-42 3:22 4:-267 5:-3343 6:-4000 7:-1718 8:37
+1 1:4 2:-20 3:144 4:-303 5:-3653 6:-2570 7:-1635 8:51
+1 1:-59 2:25 3:215 4:-359 5:-4000 6:-877 7:-1769 8:330
+1 1:-76 2:22 3:167 4:-416 5:-4000 6:-537 7:-2127 8:631
+1 1:-78 2:130 3:134 4:-263 5:-4000 6:146 7:-1979 8:1045
+1 1:-95 2:177 3:122 4:-67 5:-4000 6:494 7:-1376 8:1236
+1 1:-71 2:110 3:14 4:22 5:-4000 6:463 7:-1006 8:1332
+1 1:-40 2:127 3:-60 4:150 5:-4000 6:498 7:-1616 8:1632
+1 1:-29 2:103 3:-26 4:203 5:-4000 6:189 7:-2082 8:1663
+1 1:-45 2:53 3:-26 4:244 5:-4000 6:-53 7:-2251 8:1704
+1 1:-18 2:41 3:-33 4:276 5:-2602 6:-251 7:-2062 8:2111
+1 1:32 2:36 3:-34 4:262 5:-1315 6:-251 7:-956 8:2640
+1 1:38 2:22 3:-65 4:223 5:223 6:-161 7:954 8:3067
+1 1:22 2:-19 3:-64 4:170 5:1660 6:6 7:2241 8:3654
+1 1:32 2:-24 3:-63 4:142 5:3167 6:404 7:2700 8:3613
+1 1:88 2:6 3:-38 4:140 5:4000 6:673 7:3919 8:3390
+1 1:89 2:-3 3:-42 4:68 5:4000 6:1071 7:4000 8:3328
+1 1:48 2:-15 3:-82 4:-73 5:4000 6:1417 7:4000 8:3079
+1 1:13 2:-14 3:-129 4:-157 5:4000 6:1733 7:4000 8:2900
+1 1:5 2:30 3:-107 4:-172 5:4000 6:2319 7:4000 8:2675
+1 1:-8 2:50 3:-66 4:-247 5:4000 6:2377 7:4000 8:2380
+1 1:-36 2:47 3:-14 4:-293 5:4000 6:1669 7:4000 8:2157
+1 1:-110 2:32 3:32 4:-239 5:4000 6:823 7:4000 8:1958
+1 1:-227 2:-3 3:39 4:-220 5:4000 6:-232 7:4000 8:1496
+1 1:-207 2:3 3:59 4:-198 5:4000 6:-1648 7:4000 8:1026
+1 1:-137 2:-10 3:50 4:-159 5:4000 6:-1780 7:4000 8:739
+1 1:-32 2:-92 3:71 4:-30 5:4000 6:-776 7:4000 8:127
+1 1:35 2:-166 3:87 4:61 5:4000 6:-264 7:4000 8:-490
+1 1:-1 2:-144 3:55 4:-2 5:4000 6:267 7:4000 8:-781
+1 1:-16 2:-135 3:0 4:-41 5:4000 6:119 7:4000 8:-948
+1 1:-146 2:-118 3:-52 4:-34 5:4000 6:-137 7:4000 8:-1236
+1 1:-201 2:-89 3:-42 4:-6 5:4000 6:283 7:4000 8:-1534
+1 1:-136 2:-69 3:-44 4:53 5:4000 6:563 7:4000 8:-1656
+1 1:-74 2:-46 3:-48 4:85 5:4000 6:723 7:4000 8:-1465
+1 1:29 2:3 3:-18 4:74 5:4000 6:884 7:4000 8:-1534
+1 1:95 2:60 3:-31 4:4 5:3737 6:563 7:4000 8:-1652
+1 1:168 2:55 3:-30 4:-38 5:2243 6:-96 7:4000 8:-1531
+1 1:407 2:20 3:-20 4:64 5:953 6:-537 7:4000 8:-1723
+1 1:801 2:-28 3:-36 4:150 5:-203 6:-773 7:4000 8:-1998
+1 1:929 2:-10 3:-21 4:88 5:-1495 6:-982 7:4000 8:-2283
+1 1:774 2:-1 3:-24 4:19 5:-2805 6:-1430 7:4000 8:-2360
+1 1:605 2:-44 3:-49 4:18 5:-4000 6:-1729 7:4000 8:-2344
+1 1:501 2:-63 3:-66 4:26 5:-4000 6:-1800 7:4000 8:-2296
+1 1:273 2:-64 3:-55 4:46 5:-4000 6:-1848 7:4000 8:-2150
+1 1:-118 2:-44 3:-48 4:-48 5:-4000 6:-2250 7:3999 8:-2153
+1 1:-567 2:-81 3:-64 4:-227 5:-4000 6:-2351 7:3999 8:-2230
+1 1:-1066 2:-103 3:25 4:-200 5:-4000 6:-2612 7:4000 8:-2320
+1 1:-1150 2:-39 3:152 4:-161 5:-4000 6:-3521 7:4000 8:-2410
+1 1:-1170 2:36 3:152 4:-169 5:-4000 6:-3990 7:4000 8:-2543
+1 1:-1090 2:86 3:92 4:-255 5:-4000 6:-3921 7:4000 8:-2649
+1 1:-785 2:109 3:-8 4:-285 5:-4000 6:-3104 7:4000 8:-2556
+1 1:-605 2:75 3:-89 4:-180 5:-4000 6:-2197 7:3364 8:-2429
+1 1:-371 2:-4 3:-182 4:-190 5:-4000 6:-1688 7:2167 8:-2280
+1 1:-457 2:-43 3:-218 4:-72 5:-4000 6:-1444 7:2126 8:-2051
+1 1:-580 2:-34 3:-136 4:35 5:-4000 6:-1490 7:3494 8:-1706
+1 1:-248 2:-36 3:-52 4:59 5:-4000 6:-1780 7:4000 8:-1298
+1 1:5 2:-80 3:-7 4:95 5:-4000 6:-1823 7:4000 8:-899
+1 1:74 2:-122 3:-17 4:89 5:4000 6:-1701 7:4000 8:-512
+1 1:359 2:-176 3:-14 4:79 5:4000 6:-1755 7:4000 8:-240
+1 1:442 2:-173 3:71 4:48 5:4000 6:-1688 7:1579 8:43
+1 1:640 2:-121 3:179 4:-82 5:4000 6:-1420 7:-2435 8:304
+1 1:863 2:-64 3:171 4:-216 5:4000 6:-964 7:-4000 8:604
+1 1:733 2:16 3:164 4:-190 5:4000 6:-493 7:-4000 8:859
+1 1:554 2:94 3:198 4:-64 5:4000 6:-185 7:-4000 8:920
+1 1:391 2:208 3:178 4:-26 5:4000 6:-188 7:-4000 8:947
+1 1:90 2:132 3:252 4:-53 5:4000 6:-260 7:-2804 8:882
+1 1:-193 2:-24 3:451 4:-33 5:4000 6:-212 7:-967 8:766
+1 1:-74 2:-3 3:345 4:-29 5:4000 6:-216 7:-998 8:621
+1 1:303 2:-5 3:34 4:53 5:4000 6:-171 7:-2247 8:434
+1 1:1167 2:12 3:-128 4:142 5:4000 6:-101 7:-3733 8:318
+1 1:1492 2:19 3:-310 4:204 5:4000 6:-117 7:-4000 8:334
+1 1:1104 2:17 3:-333 4:215 5:4000 6:-261 7:-4000 8:521
+1 1:1167 2:60 3:-384 4:12 5:4000 6:-354 7:-4000 8:740
+1 1:577 2:57 3:-320 4:-173 5:4000 6:-286 7:-4000 8:955
+1 1:-396 2:95 3:-192 4:-145 5:2516 6:-124 7:-4000 8:1301
+1 1:-995 2:122 3:259 4:4 5:-1228 6:24 7:-4000 8:1716
+1 1:-1370 2:131 3:1810 4:80 5:-4000 6:203 7:-4000 8:2510
+1 1:-1416 2:130 3:3626 4:35 5:-4000 6:420 7:-4000 8:3912
+1 1:-1585 2:135 3:4000 4:56 5:-4000 6:508 7:-4000 8:4000
+1 1:-1557 2:195 3:2876 4:177 5:-4000 6:466 7:-4000 8:4000
+1 1:-1351 2:269 3:1184 4:272 5:-4000 6:481 7:-4000 8:3806
+1 1:-940 2:316 3:-308 4:243 5:-4000 6:505 7:-4000 8:3079
+1 1:-481 2:225 3:-2045 4:305 5:-4000 6:611 7:-4000 8:2380
+1 1:-425 2:126 3:-2821 4:209 5:-4000 6:871 7:-4000 8:2029
+1 1:-35 2:103 3:-3159 4:8 5:-4000 6:754 7:-4000 8:1859
+1 1:473 2:45 3:-3242 4:-139 5:-4000 6:626 7:-4000 8:1728
+1 1:863 2:2 3:-3071 4:-350 5:-4000 6:898 7:-4000 8:1403
+1 1:1101 2:20 3:-3042 4:-391 5:-4000 6:871 7:-4000 8:825
+1 1:1124 2:5 3:-2451 4:-376 5:-4000 6:520 7:-4000 8:26
+1 1:1124 2:-8 3:-2021 4:-164 5:-4000 6:443 7:-4000 8:-976
+1 1:786 2:-110 3:-849 4:205 5:-4000 6:449 7:-4000 8:-1966
+1 1:668 2:-213 3:580 4:341 5:-4000 6:555 7:-4000 8:-2811
+1 1:1566 2:-174 3:1045 4:246 5:-4000 6:677 7:-4000 8:-3655
+1 1:1504 2:-201 3:297 4:134 5:-4000 6:795 7:-4000 8:-4000
+1 1:639 2:-218 3:-434 4:129 5:-4000 6:814 7:-4000 8:-4000
+1 1:342 2:-200 3:-595 4:329 5:-4000 6:701 7:-4000 8:-4000
+1 1:-80 2:-188 3:-829 4:417 5:-4000 6:747 7:-3599 8:-4000
+1 1:-693 2:-93 3:-515 4:189 5:-4000 6:693 7:-3147 8:-4000
+1 1:-1235 2:23 3:-444 4:85 5:-4000 6:518 7:-2978 8:-4000
+1 1:-1560 2:69 3:-1 4:-17 5:-4000 6:282 7:-2903 8:-4000
+1 1:-1455 2:124 3:728 4:-74 5:-4000 6:165 7:-2937 8:-4000
+1 1:-972 2:112 3:1368 4:-232 5:-4000 6:209 7:-2899 8:-4000
+1 1:-516 2:63 3:1759 4:-420 5:-4000 6:129 7:-2903 8:-4000
+1 1:269 2:45 3:1835 4:-356 5:-4000 6:164 7:-2899 8:-4000
+1 1:125 2:-27 3:2266 4:-209 5:-3185 6:201 7:-2756 8:-4000
+1 1:-804 2:13 3:2616 4:44 5:3998 6:107 7:-2615 8:-4000
+1 1:-1219 2:-65 3:2602 4:134 5:4000 6:44 7:-2146 8:-4000
+1 1:-1597 2:-149 3:2746 4:150 5:4000 6:61 7:-1421 8:-4000
+1 1:-1300 2:-48 3:1692 4:38 5:4000 6:101 7:-595 8:-4000
+1 1:-620 2:-6 3:171 4:-67 5:4000 6:235 7:273 8:-3912
+1 1:774 2:-67 3:-632 4:-57 5:4000 6:672 7:1119 8:-2700
+1 1:2015 2:-16 3:-2112 4:-25 5:4000 6:986 7:1788 8:-1735
+1 1:1372 2:158 3:-2325 4:81 5:4000 6:1205 7:2126 8:-852
+1 1:1209 2:266 3:-2667 4:183 5:4000 6:1440 7:2361 8:-95
+1 1:1441 2:314 3:-2737 4:178 5:4000 6:1604 7:2505 8:373
+1 1:1645 2:239 3:-2253 4:15 5:4000 6:2035 7:2711 8:581
+1 1:1832 2:273 3:-1665 4:6 5:4000 6:2496 7:3217 8:807
+1 1:934 2:256 3:-490 4:3 5:4000 6:2812 7:4000 8:1065
+1 1:647 2:134 3:-28 4:-86 5:4000 6:3101 7:4000 8:1258
+1 1:60 2:3 3:866 4:15 5:4000 6:3283 7:4000 8:1374
+1 1:-911 2:-34 3:1192 4:115 5:4000 6:3296 7:4000 8:1372
+1 1:-1271 2:38 3:1062 4:272 5:4000 6:3215 7:4000 8:1258
+1 1:-1204 2:5 3:541 4:449 5:4000 6:3018 7:4000 8:1077
+1 1:-649 2:40 3:-160 4:426 5:4000 6:2568 7:4000 8:1012
+1 1:-233 2:-83 3:-629 4:352 5:4000 6:1864 7:4000 8:1150
+1 1:725 2:-72 3:-1020 4:199 5:4000 6:1138 7:4000 8:1578
+1 1:1020 2:-18 3:178 4:-101 5:4000 6:282 7:4000 8:2357
+1 1:513 2:-99 3:2746 4:-450 5:4000 6:-698 7:4000 8:3207
+1 1:27 2:54 3:4000 4:-654 5:4000 6:-1572 7:4000 8:3845
+1 1:-533 2:-36 3:4000 4:-611 5:4000 6:-1841 7:4000 8:4000
+1 1:-1039 2:-27 3:4000 4:-589 5:4000 6:-1994 7:4000 8:4000
+1 1:-1667 2:122 3:3779 4:-610 5:4000 6:-2400 7:4000 8:4000
+1 1:-1854 2:111 3:2537 4:-466 5:4000 6:-2802 7:4000 8:4000
+1 1:-2607 2:41 3:2719 4:-237 5:4000 6:-3049 7:4000 8:4000
+1 1:-2671 2:28 3:3443 4:1 5:4000 6:-2923 7:4000 8:4000
+1 1:-1717 2:125 3:1422 4:205 5:4000 6:-2896 7:4000 8:4000
+1 1:-1418 2:-2 3:-1280 4:345 5:4000 6:-3144 7:4000 8:4000
+1 1:-582 2:-87 3:-2955 4:299 5:4000 6:-3270 7:4000 8:4000
+1 1:880 2:-39 3:-4000 4:219 5:4000 6:-3079 7:4000 8:4000
+1 1:2028 2:22 3:-4000 4:150 5:4000 6:-2705 7:4000 8:4000
+1 1:2093 2:177 3:-4000 4:-88 5:3937 6:-2113 7:4000 8:4000
+1 1:1085 2:224 3:-4000 4:-414 5:3493 6:-1317 7:4000 8:4000
+1 1:-123 2:32 3:-4000 4:-589 5:1417 6:-312 7:4000 8:4000
+1 1:-897 2:-42 3:-3653 4:-654 5:-1357 6:455 7:4000 8:4000
+1 1:-897 2:64 3:-2603 4:-563 5:-4000 6:1012 7:4000 8:3031
+1 1:-641 2:-68 3:-2932 4:-442 5:-4000 6:1638 7:4000 8:686
+1 1:-191 2:-272 3:-2418 4:-373 5:-4000 6:2056 7:3298 8:-1788
+1 1:827 2:-357 3:-959 4:-112 5:-4000 6:2385 7:2700 8:-4000
+1 1:1319 2:-347 3:-1268 4:56 5:-4000 6:2100 7:2377 8:-4000
+1 1:1413 2:-294 3:-1227 4:63 5:-4000 6:1202 7:2291 8:-4000
+1 1:1572 2:-30 3:-642 4:105 5:-4000 6:1463 7:1591 8:-4000
+1 1:790 2:244 3:557 4:248 5:-4000 6:2125 7:574 8:-4000
+1 1:172 2:273 3:1035 4:177 5:-4000 6:1018 7:-1191 8:-4000
+1 1:95 2:174 3:1156 4:-63 5:-4000 6:254 7:-3312 8:-4000
+1 1:161 2:-19 3:1900 4:15 5:-4000 6:845 7:-4000 8:-4000
+1 1:46 2:-21 3:2071 4:-129 5:-4000 6:747 7:-4000 8:-4000
+1 1:-392 2:-114 3:2421 4:-217 5:-4000 6:823 7:-4000 8:-4000
+1 1:-147 2:-259 3:2133 4:5 5:-4000 6:1012 7:-4000 8:-4000
+1 1:416 2:-310 3:2213 4:174 5:-4000 6:730 7:-4000 8:-4000
+1 1:855 2:-157 3:2989 4:258 5:-4000 6:455 7:-4000 8:-4000
+1 1:422 2:32 3:3380 4:203 5:-4000 6:286 7:-4000 8:-4000
+1 1:-18 2:92 3:3952 4:112 5:-4000 6:336 7:-4000 8:-4000
+1 1:110 2:199 3:3593 4:-110 5:-4000 6:-43 7:-4000 8:-4000
+1 1:138 2:174 3:2940 4:-61 5:-4000 6:-460 7:-4000 8:-4000
+1 1:117 2:211 3:1940 4:-3 5:-4000 6:-451 7:-4000 8:-4000
+1 1:86 2:113 3:152 4:-61 5:-4000 6:-100 7:-4000 8:-4000
+1 1:23 2:-50 3:-702 4:56 5:-4000 6:-163 7:-4000 8:-4000
+1 1:-204 2:-166 3:-833 4:45 5:-4000 6:-631 7:-4000 8:-4000
+1 1:4 2:-203 3:516 4:-2 5:-4000 6:-838 7:-4000 8:-4000
+1 1:-285 2:-143 3:1249 4:14 5:-4000 6:-1336 7:-4000 8:-4000
+1 1:-409 2:-128 3:496 4:69 5:-4000 6:-1995 7:-4000 8:-4000
+1 1:-407 2:-177 3:974 4:199 5:-4000 6:-2371 7:-4000 8:-4000
+1 1:-807 2:-244 3:3267 4:209 5:-4000 6:-2570 7:-4000 8:-4000
+1 1:-700 2:-256 3:3820 4:103 5:-4000 6:-2840 7:-4000 8:-4000
+1 1:-806 2:-249 3:736 4:130 5:-4000 6:-3181 7:-4000 8:-1849
+1 1:-685 2:-167 3:-1427 4:181 5:-4000 6:-3244 7:-4000 8:-127
+1 1:-416 2:-45 3:-3303 4:258 5:-4000 6:-3234 7:-4000 8:1329
+1 1:-164 2:-26 3:-4000 4:298 5:-4000 6:-3441 7:-4000 8:2965
+1 1:-68 2:-44 3:-4000 4:231 5:-4000 6:-3781 7:-4000 8:4000
+1 1:-107 2:-2 3:-4000 4:199 5:-4000 6:-4000 7:-4000 8:4000
+1 1:-42 2:-12 3:-4000 4:136 5:-4000 6:-4000 7:-4000 8:4000
+1 1:147 2:-1 3:-1687 4:92 5:-4000 6:-4000 7:-4000 8:4000
+1 1:573 2:82 3:1184 4:250 5:-4000 6:-4000 7:-4000 8:4000
+1 1:652 2:160 3:1900 4:305 5:-4000 6:-4000 7:-4000 8:4000
+1 1:733 2:154 3:1212 4:84 5:-4000 6:-3635 7:-4000 8:4000
+1 1:721 2:68 3:276 4:-76 5:-4000 6:-2819 7:-3082 8:4000
+1 1:473 2:-17 3:-417 4:-98 5:-4000 6:-1841 7:-223 8:4000
+1 1:390 2:-47 3:-1297 4:18 5:-4000 6:-1259 7:967 8:4000
+1 1:387 2:22 3:-2306 4:177 5:-3649 6:-584 7:-290 8:4000
+1 1:377 2:186 3:-2769 4:258 5:-2875 6:70 7:-2025 8:4000
+1 1:315 2:288 3:-2670 4:164 5:-1646 6:884 7:-3184 8:4000
+1 1:313 2:316 3:-969 4:96 5:-168 6:1649 7:-3977 8:4000
+1 1:281 2:315 3:-473 4:7 5:1328 6:2490 7:-4000 8:4000
+1 1:198 2:164 3:-1126 4:-131 5:2320 6:3199 7:-4000 8:4000
+1 1:77 2:32 3:-304 4:-157 5:2711 6:3602 7:-4000 8:2351
+1 1:6 2:-52 3:813 4:-112 5:2842 6:3995 7:-3729 8:-992
+1 1:-33 2:-73 3:1192 4:-79 5:2634 6:4000 7:-3446 8:-4000
+1 1:-65 2:11 3:1517 4:-159 5:2117 6:4000 7:-3184 8:-4000
+1 1:-75 2:45 3:1729 4:-198 5:1590 6:4000 7:-2939 8:-4000
+1 1:-110 2:28 3:1805 4:-159 5:1018 6:4000 7:-2615 8:-4000
+1 1:-124 2:52 3:1953 4:-57 5:546 6:3552 7:-1323 8:-4000
+1 1:-127 2:56 3:2260 4:-78 5:365 6:2373 7:-118 8:-4000
+1 1:-121 2:10 3:3119 4:-126 5:318 6:687 7:1145 8:-4000
+1 1:-144 2:-7 3:3119 4:-133 5:302 6:-166 7:4000 8:-4000
+1 1:-144 2:17 3:1900 4:-190 5:170 6:19 7:4000 8:-4000
+1 1:-105 2:45 3:1247 4:-229 5:-206 6:953 7:4000 8:-4000
+1 1:-116 2:39 3:394 4:-300 5:-723 6:2243 7:4000 8:-2392
+1 1:-113 2:16 3:-344 4:-237 5:-708 6:2243 7:4000 8:4000
+1 1:-126 2:-18 3:-776 4:-226 5:961 6:1328 7:4000 8:4000
+1 1:-144 2:-28 3:-881 4:-185 5:4000 6:758 7:4000 8:4000
+1 1:-127 2:-32 3:-804 4:-75 5:4000 6:-487 7:4000 8:4000
+1 1:-85 2:-80 3:-855 4:-29 5:4000 6:-1715 7:4000 8:4000
+1 1:-55 2:-57 3:-143 4:-11 5:4000 6:-1160 7:4000 8:4000
+1 1:-91 2:-41 3:-411 4:-29 5:4000 6:-132 7:4000 8:4000
+1 1:-107 2:-45 3:-898 4:-44 5:4000 6:845 7:4000 8:4000
+1 1:-73 2:22 3:-801 4:-8 5:4000 6:2840 7:4000 8:4000
+1 1:-80 2:25 3:-681 4:34 5:4000 6:4000 7:4000 8:4000
+1 1:-72 2:54 3:-495 4:-44 5:4000 6:4000 7:2321 8:4000
+1 1:-63 2:56 3:-500 4:-47 5:4000 6:4000 7:-1012 8:4000
+1 1:-30 2:32 3:-470 4:107 5:4000 6:4000 7:-3407 8:4000
+1 1:-37 2:87 3:-405 4:276 5:4000 6:4000 7:-4000 8:4000
+1 1:-44 2:87 3:-173 4:420 5:4000 6:4000 7:-3507 8:4000
+1 1:-32 2:160 3:71 4:455 5:4000 6:4000 7:-2044 8:4000
+1 1:-15 2:304 3:267 4:390 5:4000 6:4000 7:-1185 8:4000
+1 1:68 2:281 3:284 4:369 5:4000 6:4000 7:-305 8:4000
+1 1:60 2:224 3:531 4:299 5:4000 6:4000 7:465 8:4000
+1 1:45 2:276 3:1216 4:142 5:4000 6:4000 7:945 8:4000
+1 1:-8 2:278 3:1574 4:-6 5:4000 6:4000 7:1390 8:4000
+1 1:-30 2:160 3:996 4:-63 5:4000 6:4000 7:2582 8:4000
+1 1:-25 2:12 3:671 4:-55 5:4000 6:4000 7:3086 8:4000
+1 1:-89 2:-151 3:713 4:44 5:4000 6:4000 7:3038 8:4000
+1 1:-86 2:-293 3:223 4:170 5:4000 6:4000 7:3411 8:4000
+1 1:-61 2:-379 3:-342 4:215 5:2681 6:4000 7:3799 8:4000
+1 1:11 2:-383 3:-572 4:189 5:-4000 6:2871 7:4000 8:4000
+1 1:39 2:-353 3:-550 4:163 5:-4000 6:1055 7:4000 8:4000
+1 1:4 2:-277 3:-507 4:153 5:-4000 6:-792 7:4000 8:4000
+1 1:17 2:-256 3:-501 4:-103 5:-4000 6:-1781 7:4000 8:4000
+1 1:-37 2:-310 3:-454 4:-241 5:-4000 6:-2107 7:4000 8:4000
+1 1:-59 2:-337 3:-358 4:-267 5:-4000 6:-2353 7:4000 8:4000
+1 1:-35 2:-243 3:-317 4:-460 5:-4000 6:-2567 7:4000 8:4000
+1 1:-82 2:-155 3:-169 4:-532 5:-4000 6:-2274 7:4000 8:2443
+1 1:-117 2:-203 3:-107 4:-517 5:-4000 6:-1835 7:4000 8:-3785
+1 1:-201 2:-247 3:-19 4:-440 5:-4000 6:-1107 7:4000 8:-4000
+1 1:-200 2:17 3:-14 4:-466 5:-4000 6:-267 7:4000 8:-4000
+1 1:-101 2:304 3:-209 4:-373 5:-4000 6:-662 7:4000 8:-4000
+1 1:-42 2:446 3:-283 4:-8 5:-4000 6:-1290 7:4000 8:-4000
+1 1:55 2:460 3:-188 4:221 5:-4000 6:-2054 7:4000 8:-4000
+1 1:168 2:306 3:-6 4:223 5:1032 6:-3270 7:4000 8:-4000
+1 1:146 2:179 3:-46 4:81 5:4000 6:-4000 7:4000 8:-4000
+1 1:76 2:1 3:-170 4:-175 5:4000 6:-4000 7:4000 8:-4000
+1 1:59 2:-140 3:-124 4:-263 5:4000 6:-4000 7:4000 8:-4000
+1 1:-2 2:-267 3:-25 4:-84 5:4000 6:-4000 7:4000 8:-4000
+1 1:-55 2:-401 3:3 4:-45 5:-3391 6:-4000 7:4000 8:-4000
+1 1:-126 2:-301 3:42 4:-128 5:-4000 6:-4000 7:4000 8:-4000
+1 1:-101 2:-207 3:109 4:-164 5:-4000 6:-4000 7:4000 8:-4000
+1 1:-25 2:-318 3:66 4:-160 5:-4000 6:-4000 7:4000 8:-4000
+1 1:-51 2:-314 3:13 4:3 5:-4000 6:-4000 7:4000 8:-4000
+1 1:-74 2:-314 3:26 4:108 5:-4000 6:-4000 7:4000 8:-4000
+1 1:-94 2:-305 3:89 4:105 5:-4000 6:-4000 7:4000 8:-3060
+1 1:-96 2:-234 3:105 4:164 5:-4000 6:-3910 7:4000 8:-739
+1 1:-43 2:-141 3:57 4:113 5:-4000 6:-3974 7:4000 8:2176
+1 1:-127 2:215 3:10 4:48 5:-4000 6:-4000 7:4000 8:4000
+1 1:-152 2:599 3:35 4:118 5:-4000 6:-4000 7:4000 8:4000
+1 1:-123 2:699 3:45 4:160 5:-4000 6:-4000 7:2126 8:4000
+1 1:-156 2:502 3:-7 4:123 5:-4000 6:-4000 7:521 8:4000
+1 1:-39 2:326 3:-2 4:85 5:-4000 6:-4000 7:203 8:4000
+1 1:46 2:75 3:4 4:2 5:-4000 6:-4000 7:32 8:4000
+1 1:58 2:-116 3:-17 4:-90 5:-4000 6:-4000 7:-532 8:4000
+1 1:28 2:-236 3:-17 4:-161 5:-4000 6:-4000 7:-1179 8:4000
+1 1:10 2:-362 3:178 4:-218 5:-3858 6:-4000 7:-1462 8:4000
+1 1:77 2:-215 3:622 4:-255 5:-1548 6:-4000 7:-1718 8:4000
+1 1:51 2:-40 3:914 4:-239 5:1800 6:-4000 7:-2703 8:4000
+1 1:-31 2:24 3:777 4:-168 5:3400 6:-4000 7:-4000 8:4000
+1 1:-126 2:172 3:402 4:-153 5:4000 6:-3649 7:-4000 8:4000
+1 1:-39 2:420 3:44 4:-103 5:4000 6:-3209 7:-4000 8:4000
+1 1:168 2:521 3:-320 4:-52 5:2255 6:-2337 7:-4000 8:4000
+1 1:277 2:514 3:-637 4:-30 5:2516 6:-1313 7:-4000 8:4000
+1 1:212 2:363 3:-743 4:14 5:3085 6:-167 7:-4000 8:4000
+1 1:66 2:243 3:-752 4:-14 5:4000 6:1012 7:-4000 8:4000
+1 1:15 2:46 3:-625 4:-52 5:3462 6:1669 7:-4000 8:4000
+1 1:-43 2:-149 3:-597 4:-99 5:3688 6:2188 7:-4000 8:4000
+1 1:-31 2:-59 3:-711 4:-97 5:4000 6:2515 7:-4000 8:4000
+1 1:6 2:55 3:-702 4:-86 5:4000 6:2840 7:-4000 8:4000
+1 1:9 2:134 3:-681 4:-68 5:4000 6:3296 7:-4000 8:3014
+1 1:-12 2:195 3:-503 4:37 5:4000 6:3670 7:-4000 8:1402
+1 1:-37 2:207 3:-295 4:3 5:4000 6:3980 7:-4000 8:-240
+1 1:-37 2:29 3:-217 4:-51 5:4000 6:4000 7:-4000 8:-1664
+1 1:-94 2:-59 3:-98 4:-96 5:4000 6:4000 7:-4000 8:-3024
+1 1:-81 2:-65 3:8 4:-78 5:4000 6:3609 7:-4000 8:-4000
+1 1:-94 2:-94 3:93 4:-2 5:4000 6:2243 7:-4000 8:-4000
+1 1:-128 2:-50 3:196 4:-30 5:4000 6:180 7:-4000 8:-4000
+1 1:-110 2:-98 3:280 4:-17 5:4000 6:-1135 7:-4000 8:-4000
+1 1:-110 2:-142 3:345 4:13 5:4000 6:-680 7:-4000 8:-4000
+1 1:-49 2:-207 3:390 4:49 5:4000 6:2115 7:-4000 8:-4000
+1 1:8 2:-220 3:380 4:90 5:4000 6:4000 7:-4000 8:-4000
+1 1:35 2:-154 3:316 4:80 5:4000 6:4000 7:-3455 8:-4000
+1 1:-1 2:-140 3:280 4:52 5:4000 6:4000 7:-3130 8:-4000
+1 1:-90 2:-87 3:263 4:33 5:4000 6:4000 7:-4000 8:-4000
+1 1:-159 2:33 3:253 4:73 5:4000 6:4000 7:-4000 8:-4000
+1 1:-187 2:135 3:256 4:112 5:4000 6:4000 7:-4000 8:-4000
+1 1:-117 2:269 3:331 4:32 5:4000 6:4000 7:-4000 8:-4000
+1 1:3 2:212 3:439 4:92 5:4000 6:4000 7:-4000 8:-4000
+1 1:74 2:36 3:628 4:244 5:4000 6:4000 7:-4000 8:-4000
+1 1:97 2:51 3:988 4:305 5:4000 6:4000 7:-4000 8:-4000
+1 1:90 2:-10 3:828 4:276 5:4000 6:4000 7:-3924 8:-4000
+1 1:2 2:-146 3:658 4:236 5:4000 6:-4000 7:-3532 8:-4000
+1 1:-51 2:-215 3:1021 4:172 5:4000 6:-4000 7:-3000 8:-4000
+1 1:-33 2:-259 3:410 4:105 5:4000 6:-4000 7:-2159 8:-4000
+1 1:-20 2:-301 3:-334 4:66 5:4000 6:-4000 7:-1076 8:-4000
+1 1:-31 2:-259 3:-403 4:-2 5:4000 6:-4000 7:-651 8:-4000
+1 1:-11 2:-167 3:-547 4:-42 5:4000 6:-4000 7:-1183 8:-1843
+1 1:55 2:-257 3:-501 4:-104 5:4000 6:-4000 7:-1657 8:-946
+1 1:49 2:-393 3:-206 4:-141 5:4000 6:-4000 7:-228 8:-2401
+1 1:49 2:-330 3:24 4:-192 5:4000 6:-4000 7:1670 8:-2862
+1 1:42 2:-197 3:-267 4:-238 5:4000 6:-4000 7:2777 8:-1531
+1 1:54 2:-7 3:-773 4:-159 5:4000 6:-4000 7:2444 8:-934
+1 1:125 2:154 3:-906 4:-47 5:4000 6:-4000 7:1670 8:-1263
+1 1:97 2:174 3:-976 4:-37 5:4000 6:-4000 7:1721 8:-723
+1 1:127 2:79 3:-893 4:-25 5:4000 6:-2705 7:1027 8:-759
+1 1:136 2:74 3:-731 4:60 5:4000 6:380 7:-939 8:-1274
+1 1:60 2:282 3:-711 4:95 5:4000 6:2568 7:-2573 8:-1957
+1 1:74 2:247 3:-840 4:40 5:4000 6:3849 7:-1291 8:-1469
+1 1:90 2:237 3:-957 4:-13 5:2491 6:4000 7:819 8:-584
+1 1:-2 2:189 3:-662 4:-71 5:-387 6:4000 7:2256 8:-1103
+1 1:-110 2:-47 3:-403 4:-121 5:-2668 6:4000 7:4000 8:-1468
+1 1:-156 2:-87 3:-184 4:-151 5:-3213 6:3472 7:4000 8:-1042
+1 1:-82 2:-155 3:183 4:-249 5:-2016 6:2515 7:4000 8:-597
+1 1:97 2:-130 3:451 4:-175 5:-4 6:1777 7:3624 8:-1070
+1 1:211 2:-66 3:415 4:-5 5:1578 6:2489 7:652 8:-1404
+1 1:184 2:62 3:259 4:69 5:1270 6:3472 7:-1231 8:-1267
+1 1:48 2:132 3:85 4:156 5:-164 6:3837 7:-598 8:-869
+1 1:-86 2:103 3:39 4:282 5:-661 6:3552 7:672 8:-1192
+1 1:-78 2:140 3:272 4:272 5:-803 6:2840 7:2058 8:-1465
+1 1:6 2:29 3:736 4:170 5:-1202 6:1799 7:2682 8:-622
+1 1:31 2:-55 3:1184 4:141 5:-1012 6:640 7:1206 8:-244
+1 1:32 2:-108 3:1119 4:69 5:-511 6:-450 7:-2174 8:-22
+1 1:39 2:-83 3:892 4:20 5:-31 6:-1396 7:-4000 8:279
+1 1:25 2:42 3:596 4:-61 5:432 6:-2095 7:-4000 8:251
+1 1:19 2:126 3:568 4:-125 5:-180 6:-2677 7:-3320 8:279
+1 1:3 2:82 3:543 4:-124 5:-1650 6:-2853 7:1722 8:276
+1 1:-4 2:108 3:162 4:-129 5:-3054 6:-2963 7:4000 8:302
+1 1:43 2:205 3:-78 4:-122 5:-4000 6:-2987 7:4000 8:241
+1 1:62 2:247 3:2 4:-109 5:-4000 6:-2998 7:4000 8:209
+1 1:23 2:306 3:215 4:-91 5:-4000 6:-3169 7:4000 8:267
+1 1:-25 2:298 3:-101 4:-86 5:-4000 6:-3555 7:4000 8:279
+1 1:-4 2:229 3:-560 4:-38 5:-4000 6:-4000 7:4000 8:339
+1 1:4 2:136 3:-810 4:-30 5:197 6:-4000 7:2972 8:352
+1 1:-18 2:83 3:-1101 4:0 5:4000 6:-4000 7:2492 8:413
+1 1:-15 2:0 3:-1085 4:6 5:4000 6:-4000 7:1760 8:534
+1 1:-55 2:-11 3:-1215 4:0 5:4000 6:-4000 7:-134 8:743
+1 1:-92 2:67 3:-1166 4:-61 5:4000 6:-3781 7:-2403 8:947
+1 1:-153 2:2 3:-801 4:-116 5:3334 6:-3275 7:-1977 8:1138
+1 1:-181 2:-22 3:-507 4:-48 5:2060 6:-2857 7:1007 8:1313
+1 1:-165 2:-43 3:-153 4:-79 5:2255 6:-2250 7:3559 8:1574
+1 1:-119 2:-102 3:42 4:-108 5:1638 6:-1522 7:4000 8:2054
+1 1:-10 2:-42 3:510 4:-139 5:-2175 6:-525 7:4000 8:2313
+1 1:64 2:9 3:1023 4:-151 5:-4000 6:820 7:4000 8:2290
+1 1:51 2:20 3:1062 4:-131 5:-4000 6:2356 7:4000 8:2313
+1 1:-3 2:44 3:1379 4:-112 5:-4000 6:4000 7:2749 8:2302
+1 1:-9 2:50 3:1630 4:-28 5:-4000 6:4000 7:687 8:2054
+1 1:-6 2:40 3:882 4:3 5:-4000 6:4000 7:-233 8:2309
+1 1:-62 2:-13 3:987 4:-12 5:-4000 6:4000 7:-1421 8:3014
+1 1:-56 2:-18 3:1212 4:-20 5:-4000 6:4000 7:-4000 8:3731
+1 1:33 2:-25 3:996 4:16 5:-4000 6:4000 7:-4000 8:4000
+1 1:107 2:-164 3:742 4:41 5:-4000 6:4000 7:-3623 8:4000
+1 1:194 2:-275 3:-300 4:73 5:-4000 6:4000 7:-2859 8:4000
+1 1:204 2:-474 3:-801 4:85 5:-4000 6:4000 7:-3376 8:3831
+1 1:73 2:-602 3:-1166 4:62 5:-4000 6:4000 7:-2247 8:3943
+1 1:-68 2:-505 3:-1215 4:40 5:-4000 6:4000 7:-1718 8:3845
+1 1:-111 2:-261 3:-1344 4:43 5:-4000 6:4000 7:-1830 8:3269
+1 1:-121 2:19 3:-1577 4:43 5:-4000 6:4000 7:-2317 8:2680
+1 1:-118 2:160 3:-1321 4:-8 5:-4000 6:4000 7:-3717 8:1924
+1 1:-80 2:154 3:-1101 4:-79 5:-4000 6:4000 7:-4000 8:788
+1 1:-98 2:74 3:-409 4:-141 5:-4000 6:4000 7:-4000 8:-622
+1 1:-111 2:115 3:14 4:-141 5:-4000 6:4000 7:-4000 8:-1428
+1 1:-45 2:63 3:55 4:-153 5:-4000 6:4000 7:-4000 8:-1469
+1 1:-67 2:-8 3:227 4:-129 5:-4000 6:4000 7:-4000 8:-1428
+1 1:-44 2:-13 3:390 4:-74 5:-4000 6:4000 7:-4000 8:-480
+1 1:34 2:57 3:168 4:-44 5:-4000 6:4000 7:-3326 8:1065
+1 1:74 2:97 3:97 4:10 5:-4000 6:4000 7:-1197 8:2249
+1 1:82 2:116 3:85 4:74 5:-4000 6:4000 7:-264 8:2616
+1 1:-60 2:359 3:171 4:64 5:-4000 6:4000 7:-41 8:2371
+1 1:-156 2:511 3:425 4:-23 5:-3852 6:4000 7:294 8:2575
+1 1:-216 2:498 3:1062 4:-44 5:-1183 6:4000 7:367 8:2939
+1 1:-197 2:477 3:1808 4:-7 5:2224 6:4000 7:172 8:3079
+1 1:-146 2:380 3:1009 4:-25 5:4000 6:4000 7:85 8:2770
+1 1:-54 2:203 3:172 4:-40 5:4000 6:4000 7:-108 8:2437
+1 1:113 2:70 3:-450 4:-6 5:4000 6:4000 7:-359 8:2111
+1 1:159 2:-77 3:-1154 4:-12 5:4000 6:4000 7:-1194 8:1606
+1 1:169 2:-340 3:-1293 4:-55 5:4000 6:4000 7:-2208 8:1384
+1 1:110 2:-570 3:-762 4:-61 5:4000 6:4000 7:-3130 8:1324
+1 1:64 2:-687 3:186 4:-102 5:4000 6:4000 7:-3977 8:1077
+1 1:90 2:-540 3:1127 4:-116 5:4000 6:4000 7:-4000 8:646
+1 1:38 2:-344 3:1025 4:-72 5:4000 6:4000 7:-4000 8:114
+1 1:3 2:-179 3:-48 4:-62 5:4000 6:4000 7:-4000 8:-684
+1 1:-7 2:-66 3:-482 4:-71 5:4000 6:1900 7:-4000 8:-1058
+1 1:-109 2:-117 3:-1081 4:12 5:4000 6:-12 7:-4000 8:-1229
+1 1:-136 2:-133 3:-1061 4:90 5:4000 6:-1701 7:-3711 8:-973
+1 1:-123 2:-141 3:-637 4:96 5:4000 6:-3181 7:-1431 8:-334
+1 1:-61 2:14 3:172 4:90 5:4000 6:-4000 7:755 8:-268
+1 1:-59 2:34 3:1833 4:73 5:4000 6:-4000 7:2883 8:-280
+1 1:-150 2:60 3:2616 4:12 5:4000 6:-4000 7:4000 8:-329
+1 1:-87 2:148 3:1770 4:-9 5:4000 6:-4000 7:4000 8:-132
+1 1:-53 2:24 3:430 4:0 5:4000 6:-4000 7:4000 8:-59
+1 1:-56 2:4 3:-413 4:-39 5:4000 6:-4000 7:4000 8:-427
+1 1:0 2:18 3:-1230 4:-64 5:4000 6:-4000 7:4000 8:-750
+1 1:-16 2:98 3:-1419 4:-52 5:2163 6:-4000 7:3103 8:-1018
+1 1:-19 2:79 3:-908 4:18 5:-2205 6:-4000 7:2429 8:-1267
+1 1:22 2:76 3:-377 4:20 5:-4000 6:-4000 7:3233 8:-1761
+1 1:54 2:95 3:77 4:-48 5:-4000 6:-4000 7:4000 8:-2090
+1 1:82 2:38 3:-324 4:-116 5:-4000 6:-4000 7:4000 8:-1339
+1 1:86 2:-21 3:-977 4:-46 5:-4000 6:-4000 7:4000 8:-288
+1 1:5 2:-72 3:-816 4:14 5:-4000 6:-4000 7:4000 8:-280
+1 1:-8 2:6 3:-753 4:-33 5:-4000 6:-4000 7:4000 8:-446
+1 1:35 2:80 3:-572 4:-2 5:-4000 6:-4000 7:2843 8:-744
+1 1:47 2:159 3:-567 4:-30 5:-4000 6:-4000 7:1392 8:-1018
+1 1:135 2:201 3:-529 4:-78 5:-4000 6:-4000 7:-513 8:-1269
+1 1:120 2:196 3:-519 4:-135 5:-4000 6:-4000 7:-2791 8:-1391
+1 1:49 2:174 3:-463 4:-116 5:-4000 6:-4000 7:-3977 8:-1135
+1 1:94 2:91 3:-517 4:-92 5:-4000 6:-4000 7:-4000 8:-944
+1 1:71 2:44 3:-595 4:-61 5:-4000 6:-4000 7:-4000 8:-571
+1 1:41 2:-10 3:398 4:-11 5:-4000 6:-4000 7:-4000 8:-946
+1 1:55 2:-91 3:1314 4:-23 5:-1440 6:-4000 7:-4000 8:-1245
+1 1:31 2:-161 3:1806 4:-15 5:1734 6:-4000 7:-4000 8:-1131
+1 1:-46 2:-122 3:1538 4:-52 5:4000 6:-4000 7:-4000 8:-1656
+1 1:-123 2:-30 3:707 4:-54 5:4000 6:-4000 7:-3977 8:-2230
+1 1:-210 2:-26 3:-113 4:-4 5:4000 6:-4000 7:-2109 8:-1917
+1 1:-295 2:-17 3:-454 4:-9 5:4000 6:-4000 7:-962 8:-753
+1 1:-236 2:33 3:-385 4:8 5:4000 6:-4000 7:170 8:-251
+1 1:-91 2:99 3:516 4:41 5:4000 6:-3685 7:1441 8:-6
+1 1:-25 2:148 3:1485 4:-13 5:4000 6:-3323 7:2711 8:878
+1 1:4 2:92 3:1568 4:-76 5:4000 6:-2987 7:3086 8:1753
+1 1:-36 2:45 3:1361 4:-56 5:4000 6:-2638 7:2633 8:1915
+1 1:-44 2:-29 3:-409 4:-28 5:4000 6:-2286 7:1864 8:1443
